t,x,y,ref_x,ref_y,err,v,w,voltage,current,percentage
0.001,0.0000,0.0000,0.0000,0.0000,0.0000,0.180,-0.000,12.020,0.000,84.440
0.003,0.0000,0.0000,0.0000,0.0000,0.0000,0.180,-0.000,12.020,0.000,84.440
0.005,0.0000,0.0000,0.0000,0.0000,0.0000,0.180,-0.000,12.020,0.000,84.440
0.007,0.0000,0.0000,0.0000,0.0000,0.0000,0.180,-0.000,12.000,0.000,83.330
0.009,0.0000,0.0000,0.0000,0.0000,0.0000,0.180,-0.000,12.020,0.000,84.440
0.024,0.0000,0.0000,0.0000,0.0000,0.0000,0.180,-0.000,12.020,0.000,84.440
0.099,0.0000,0.0000,0.0000,0.0000,0.0000,0.180,-0.000,11.850,0.000,75.000
0.140,0.0008,0.0000,0.0008,0.0000,0.0000,0.180,-0.000,11.780,0.000,71.110
0.186,0.0062,0.0000,0.0062,0.0000,0.0000,0.180,-0.001,11.840,0.000,74.440
0.231,0.0134,0.0001,0.0134,0.0000,0.0001,0.180,-0.001,11.850,0.000,75.000
0.290,0.0249,0.0002,0.0249,0.0000,0.0002,0.180,-0.002,11.840,0.000,74.440
0.318,0.0325,0.0002,0.0325,0.0000,0.0002,0.180,-0.002,11.820,0.000,73.330
0.374,0.0399,0.0003,0.0399,0.0000,0.0003,0.180,-0.002,11.850,0.000,75.000
0.491,0.0514,0.0004,0.0514,0.0000,0.0004,0.180,-0.002,11.850,0.000,75.000
0.505,0.0592,0.0004,0.0592,0.0000,0.0004,0.180,-0.002,11.840,0.000,74.440
0.558,0.0667,0.0005,0.0667,0.0000,0.0005,0.180,-0.002,11.840,0.000,74.440
0.605,0.0783,0.0006,0.0783,0.0000,0.0006,0.180,-0.001,11.850,0.000,75.000
0.622,0.0862,0.0006,0.0862,0.0000,0.0006,0.180,-0.001,11.850,0.000,75.000
0.667,0.0938,0.0007,0.0938,0.0000,0.0007,0.180,-0.001,11.840,0.000,74.440
0.757,0.1052,0.0007,0.1052,0.0000,0.0007,0.180,-0.001,11.840,0.000,74.440
0.802,0.1130,0.0008,0.1130,0.0000,0.0008,0.180,-0.001,11.850,0.000,75.000
0.829,0.1245,0.0008,0.1245,0.0000,0.0008,0.180,-0.001,11.840,0.000,74.440
0.921,0.1321,0.0009,0.1321,0.0000,0.0009,0.180,-0.001,11.840,0.000,74.440
1.077,0.1398,0.0009,0.1398,0.0000,0.0009,0.180,-0.001,11.850,0.000,75.000
1.091,0.1515,0.0009,0.1515,0.0000,0.0009,0.180,-0.001,11.840,0.000,74.440
1.098,0.1590,0.0010,0.1590,0.0000,0.0010,0.180,-0.001,11.840,0.000,74.440
1.103,0.1668,0.0010,0.1668,0.0000,0.0010,0.180,-0.001,11.840,0.000,74.440
1.136,0.1785,0.0011,0.1785,0.0000,0.0011,0.180,-0.001,11.850,0.000,75.000
1.204,0.1863,0.0011,0.1863,0.0000,0.0011,0.180,-0.001,11.840,0.000,74.440
1.250,0.1940,0.0011,0.1940,0.0000,0.0011,0.180,-0.001,11.850,0.000,75.000
1.284,0.2056,0.0012,0.2056,0.0000,0.0012,0.180,-0.001,11.850,0.000,75.000
1.381,0.2133,0.0012,0.2133,0.0000,0.0012,0.180,-0.001,11.840,0.000,74.440
1.397,0.2208,0.0013,0.2208,0.0000,0.0013,0.180,-0.001,11.840,0.000,74.440
1.490,0.2322,0.0013,0.2322,0.0000,0.0013,0.180,-0.001,11.840,0.000,74.440
1.519,0.2398,0.0013,0.2398,0.0000,0.0013,0.180,-0.001,11.840,0.000,74.440
1.565,0.2474,0.0014,0.2474,0.0000,0.0014,0.180,-0.001,11.840,0.000,74.440
1.605,0.2588,0.0014,0.2588,0.0000,0.0014,0.180,-0.001,11.850,0.000,75.000
1.640,0.2666,0.0014,0.2666,0.0000,0.0014,0.180,-0.001,11.840,0.000,74.440
1.683,0.2742,0.0015,0.2742,0.0000,0.0015,0.180,-0.001,11.850,0.000,75.000
1.772,0.2857,0.0015,0.2857,0.0000,0.0015,0.180,-0.001,11.840,0.000,74.440
1.791,0.2936,0.0015,0.2936,0.0000,0.0015,0.180,-0.001,11.870,0.000,76.110
1.832,0.3012,0.0015,0.3012,0.0000,0.0015,0.180,-0.001,11.820,0.000,73.330
1.992,0.3127,0.0015,0.3127,0.0000,0.0015,0.180,-0.000,11.850,0.000,75.000
1.994,0.3205,0.0015,0.3205,0.0000,0.0015,0.180,-0.000,11.850,0.000,75.000
2.017,0.3280,0.0015,0.3280,0.0000,0.0015,0.180,-0.000,11.840,0.000,74.440
2.049,0.3394,0.0015,0.3394,0.0000,0.0015,0.180,-0.000,11.840,0.000,74.440
2.095,0.3472,0.0015,0.3472,0.0000,0.0015,0.180,0.000,11.870,0.000,76.110
2.123,0.3549,0.0015,0.3549,0.0000,0.0015,0.180,0.000,11.820,0.000,73.330
2.171,0.3664,0.0015,0.3664,0.0000,0.0015,0.180,0.000,11.820,0.000,73.330
2.281,0.3742,0.0014,0.3742,0.0000,0.0014,0.180,0.000,11.850,0.000,75.000
2.288,0.3820,0.0014,0.3820,0.0000,0.0014,0.180,0.000,11.840,0.000,74.440
2.313,0.3936,0.0014,0.3936,0.0000,0.0014,0.180,-0.000,11.820,0.000,73.330
2.389,0.4010,0.0014,0.4010,0.0000,0.0014,0.180,-0.000,11.850,0.000,75.000
2.491,0.4125,0.0014,0.4125,0.0000,0.0014,0.180,0.000,11.820,0.000,73.330
2.493,0.4201,0.0014,0.4201,0.0000,0.0014,0.180,0.000,11.820,0.000,73.330
2.564,0.4278,0.0014,0.4278,0.0000,0.0014,0.180,0.000,11.840,0.000,74.440
2.584,0.4392,0.0013,0.4392,0.0000,0.0013,0.180,0.000,11.820,0.000,73.330
2.643,0.4468,0.0013,0.4468,0.0000,0.0013,0.180,0.000,11.820,0.000,73.330
2.691,0.4543,0.0013,0.4543,0.0000,0.0013,0.180,0.000,11.840,0.000,74.440
2.715,0.4658,0.0013,0.4658,0.0000,0.0013,0.180,0.000,11.840,0.000,74.440
2.774,0.4735,0.0013,0.4735,0.0000,0.0013,0.180,0.000,11.840,0.000,74.440
2.822,0.4811,0.0012,0.4811,0.0000,0.0012,0.180,0.001,11.840,0.000,74.440
2.871,0.4928,0.0012,0.4928,0.0000,0.0012,0.180,0.001,11.840,0.000,74.440
2.990,0.5005,0.0012,0.5005,0.0000,0.0012,0.180,0.001,11.820,0.000,73.330
2.992,0.5081,0.0011,0.5081,0.0000,0.0011,0.180,0.001,11.820,0.000,73.330
3.038,0.5196,0.0011,0.5196,0.0000,0.0011,0.180,0.001,11.840,0.000,74.440
3.096,0.5273,0.0010,0.5273,0.0000,0.0010,0.180,0.002,11.840,0.000,74.440
3.179,0.5350,0.0010,0.5350,0.0000,0.0010,0.180,0.002,11.840,0.000,74.440
3.193,0.5464,0.0009,0.5464,0.0000,0.0009,0.180,0.002,11.840,0.000,74.440
3.223,0.5540,0.0008,0.5540,0.0000,0.0008,0.180,0.002,11.850,0.000,75.000
3.302,0.5618,0.0008,0.5618,0.0000,0.0008,0.180,0.002,11.820,0.000,73.330
3.320,0.5734,0.0007,0.5734,0.0000,0.0007,0.180,0.002,11.850,0.000,75.000
3.394,0.5807,0.0006,0.5807,0.0000,0.0006,0.180,0.002,11.850,0.000,75.000
3.498,0.5925,0.0006,0.5925,0.0000,0.0006,0.180,0.002,11.820,0.000,73.330
3.510,0.6000,0.0005,0.6000,0.0000,0.0005,0.180,0.002,11.820,0.000,73.330
3.538,0.6075,0.0005,0.6075,0.0000,0.0005,0.180,0.002,11.850,0.000,75.000
3.597,0.6190,0.0004,0.6190,0.0000,0.0004,0.180,0.002,11.820,0.000,73.330
3.673,0.6266,0.0003,0.6266,0.0000,0.0003,0.180,0.002,11.820,0.000,73.330
3.688,0.6343,0.0003,0.6343,0.0000,0.0003,0.180,0.002,11.850,0.000,75.000
3.763,0.6457,0.0002,0.6457,0.0000,0.0002,0.180,0.003,11.840,0.000,74.440
3.795,0.6532,0.0001,0.6532,0.0000,0.0001,0.180,0.003,11.820,0.000,73.330
3.828,0.6609,0.0001,0.6609,0.0000,0.0001,0.180,0.003,11.840,0.000,74.440
3.992,0.6723,-0.0000,0.6723,0.0000,0.0000,0.180,0.003,11.820,0.000,73.330
3.995,0.6800,-0.0001,0.6800,0.0000,0.0001,0.180,0.003,11.820,0.000,73.330
4.045,0.6876,-0.0002,0.6876,0.0000,0.0002,0.180,0.003,11.840,0.000,74.440
4.052,0.6992,-0.0003,0.6992,0.0000,0.0003,0.180,0.003,11.850,0.000,75.000
4.132,0.7069,-0.0004,0.7069,0.0000,0.0004,0.180,0.003,11.820,0.000,73.330
4.139,0.7183,-0.0005,0.7183,0.0000,0.0005,0.180,0.003,11.820,0.000,73.330
4.175,0.7261,-0.0006,0.7261,0.0000,0.0006,0.180,0.004,11.840,0.000,74.440
4.274,0.7338,-0.0006,0.7338,0.0000,0.0006,0.180,0.004,11.840,0.000,74.440
4.320,0.7414,-0.0007,0.7414,0.0000,0.0007,0.180,0.005,11.820,0.000,73.330
4.352,0.7528,-0.0009,0.7528,0.0000,0.0009,0.180,0.005,11.850,0.000,75.000
4.396,0.7604,-0.0010,0.7604,0.0000,0.0010,0.180,0.005,11.850,0.000,75.000
4.492,0.7720,-0.0011,0.7720,0.0000,0.0011,0.180,0.005,11.820,0.000,73.330
4.573,0.7796,-0.0012,0.7796,0.0000,0.0012,0.180,0.005,11.840,0.000,74.440
4.579,0.7875,-0.0013,0.7875,0.0000,0.0013,0.180,0.005,11.840,0.000,74.440
4.618,0.7991,-0.0014,0.7991,0.0000,0.0014,0.180,0.005,11.820,0.000,73.330
4.663,0.8067,-0.0015,0.8067,0.0000,0.0015,0.180,0.005,11.850,0.000,75.000
4.678,0.8142,-0.0016,0.8142,0.0000,0.0016,0.180,0.005,11.850,0.000,75.000
4.756,0.8257,-0.0017,0.8257,0.0000,0.0017,0.180,0.005,11.820,0.000,73.330
4.786,0.8333,-0.0018,0.8333,0.0000,0.0018,0.180,0.005,11.820,0.000,73.330
4.819,0.8411,-0.0019,0.8411,0.0000,0.0019,0.180,0.005,11.850,0.000,75.000
4.912,0.8524,-0.0020,0.8524,0.0000,0.0020,0.180,0.005,11.820,0.000,73.330
4.926,0.8599,-0.0021,0.8599,0.0000,0.0021,0.180,0.005,11.820,0.000,73.330
5.070,0.8676,-0.0022,0.8676,0.0000,0.0022,0.180,0.006,11.850,0.000,75.000
5.077,0.8790,-0.0023,0.8790,0.0000,0.0023,0.180,0.006,11.820,0.000,73.330
5.144,0.8866,-0.0024,0.8866,0.0000,0.0024,0.180,0.006,11.850,0.000,75.000
5.151,0.8944,-0.0025,0.8944,0.0000,0.0025,0.180,0.006,11.850,0.000,75.000
5.204,0.9059,-0.0026,0.9059,0.0000,0.0026,0.180,0.006,11.840,0.000,74.440
5.262,0.9135,-0.0027,0.9135,0.0000,0.0027,0.180,0.007,11.840,0.000,74.440
5.290,0.9251,-0.0029,0.9251,0.0000,0.0029,0.180,0.007,11.840,0.000,74.440
5.352,0.9328,-0.0030,0.9328,0.0000,0.0030,0.180,0.007,11.840,0.000,74.440
5.409,0.9404,-0.0031,0.9404,0.0000,0.0031,0.180,0.008,11.840,0.000,74.440
5.489,0.9519,-0.0032,0.9519,0.0000,0.0032,0.180,0.008,11.850,0.000,75.000
5.510,0.9596,-0.0033,0.9596,0.0000,0.0033,0.180,0.008,11.850,0.000,75.000
5.604,0.9672,-0.0034,0.9672,0.0000,0.0034,0.180,0.008,11.840,0.000,74.440
5.657,0.9787,-0.0036,0.9787,0.0000,0.0036,0.180,0.009,11.840,0.000,74.440
5.663,0.9864,-0.0037,0.9864,0.0000,0.0037,0.180,0.009,11.850,0.000,75.000
5.725,0.9942,-0.0038,0.9942,0.0000,0.0038,0.180,0.009,11.850,0.000,75.000
5.733,1.0059,-0.0040,1.0059,0.0000,0.0040,0.180,0.009,11.850,0.000,75.000
5.833,1.0135,-0.0041,1.0135,0.0000,0.0041,0.180,0.009,11.850,0.000,75.000
5.863,1.0214,-0.0042,1.0214,0.0000,0.0042,0.180,0.010,11.870,0.000,76.110
5.923,1.0330,-0.0044,1.0330,0.0000,0.0044,0.180,0.010,11.840,0.000,74.440
5.986,1.0405,-0.0045,1.0405,0.0000,0.0045,0.180,0.010,11.840,0.000,74.440
6.031,1.0482,-0.0046,1.0482,0.0000,0.0046,0.180,0.011,11.850,0.000,75.000
6.038,1.0596,-0.0048,1.0596,0.0000,0.0048,0.180,0.011,11.850,0.000,75.000
6.115,1.0672,-0.0049,1.0672,0.0000,0.0049,0.180,0.012,11.850,0.000,75.000
6.174,1.0748,-0.0050,1.0748,0.0000,0.0050,0.180,0.012,11.840,0.000,74.440
6.192,1.0862,-0.0052,1.0862,0.0000,0.0052,0.180,0.012,11.840,0.000,74.440
6.252,1.0938,-0.0053,1.0938,0.0000,0.0053,0.180,0.012,11.820,0.000,73.330
6.378,1.1015,-0.0054,1.1015,0.0000,0.0054,0.180,0.012,11.850,0.000,75.000
6.385,1.1131,-0.0056,1.1131,0.0000,0.0056,0.180,0.012,11.850,0.000,75.000
6.392,1.1208,-0.0057,1.1208,0.0000,0.0057,0.180,0.012,11.840,0.000,74.440
6.491,1.1285,-0.0058,1.1285,0.0000,0.0058,0.180,0.013,11.850,0.000,75.000
6.494,1.1400,-0.0059,1.1400,0.0000,0.0059,0.180,0.013,11.850,0.000,75.000
6.579,1.1477,-0.0060,1.1477,0.0000,0.0060,0.180,0.014,11.850,0.000,75.000
6.624,1.1553,-0.0061,1.1553,0.0000,0.0061,0.180,0.015,11.840,0.000,74.440
6.631,1.1667,-0.0063,1.1667,0.0000,0.0063,0.180,0.015,11.850,0.000,75.000
6.708,1.1745,-0.0064,1.1745,0.0000,0.0064,0.180,0.015,11.850,0.000,75.000
6.753,1.1860,-0.0066,1.1860,0.0000,0.0066,0.180,0.015,11.820,0.000,73.330
6.855,1.1935,-0.0067,1.1935,0.0000,0.0067,0.180,0.015,11.850,0.000,75.000
6.862,1.2015,-0.0067,1.2015,0.0000,0.0067,0.180,0.016,11.850,0.000,75.000
6.885,1.2132,-0.0069,1.2132,0.0000,0.0069,0.180,0.016,11.820,0.000,73.330
6.997,1.2207,-0.0070,1.2207,0.0000,0.0070,0.180,0.016,11.850,0.000,75.000
7.056,1.2286,-0.0070,1.2286,0.0000,0.0070,0.180,0.016,11.870,0.000,76.110
7.154,1.2402,-0.0072,1.2402,0.0000,0.0072,0.180,0.016,11.850,0.000,75.000
7.182,1.2476,-0.0072,1.2476,0.0000,0.0072,0.180,0.017,11.850,0.000,75.000
7.189,1.2554,-0.0073,1.2554,0.0000,0.0073,0.180,0.017,11.850,0.000,75.000
7.195,1.2668,-0.0074,1.2668,0.0000,0.0074,0.180,0.017,11.850,0.000,75.000
7.231,1.2743,-0.0074,1.2743,0.0000,0.0074,0.180,0.017,11.850,0.000,75.000
7.305,1.2819,-0.0075,1.2819,0.0000,0.0075,0.180,0.017,11.850,0.000,75.000
7.331,1.2934,-0.0075,1.2934,0.0000,0.0075,0.180,0.017,11.840,0.000,74.440
7.392,1.3009,-0.0076,1.3009,0.0000,0.0076,0.180,0.018,11.840,0.000,74.440
7.493,1.3086,-0.0076,1.3086,0.0000,0.0076,0.180,0.017,11.850,0.000,75.000
7.495,1.3202,-0.0077,1.3202,0.0000,0.0077,0.180,0.017,11.850,0.000,75.000
7.533,1.3279,-0.0077,1.3279,0.0000,0.0077,0.180,0.018,11.820,0.000,73.330
7.636,1.3355,-0.0077,1.3355,0.0000,0.0077,0.180,0.019,11.840,0.000,74.440
7.644,1.3471,-0.0078,1.3471,0.0000,0.0078,0.180,0.019,11.840,0.000,74.440
7.698,1.3549,-0.0078,1.3549,0.0000,0.0078,0.180,0.020,11.840,0.000,74.440
7.783,1.3623,-0.0078,1.3623,0.0000,0.0078,0.180,0.020,11.840,0.000,74.440
7.803,1.3738,-0.0078,1.3738,0.0000,0.0078,0.180,0.020,11.870,0.000,76.110
7.876,1.3816,-0.0079,1.3816,0.0000,0.0079,0.180,0.018,11.840,0.000,74.440
7.906,1.3891,-0.0079,1.3891,0.0000,0.0079,0.180,0.018,11.820,0.000,73.330
7.991,1.4006,-0.0079,1.4006,0.0000,0.0079,0.180,0.016,11.870,0.000,76.110
7.993,1.4086,-0.0078,1.4086,0.0000,0.0078,0.180,0.016,11.870,0.000,76.110
8.052,1.4162,-0.0078,1.4162,0.0000,0.0078,0.180,0.013,11.800,0.000,72.220
8.112,1.4278,-0.0078,1.4278,0.0000,0.0078,0.180,0.009,11.850,0.000,75.000
8.157,1.4357,-0.0077,1.4357,0.0000,0.0077,0.180,0.007,11.850,0.000,75.000
8.188,1.4473,-0.0077,1.4473,0.0000,0.0077,0.180,0.007,11.820,0.000,73.330
8.231,1.4548,-0.0076,1.4548,0.0000,0.0076,0.180,0.006,11.840,0.000,74.440
8.348,1.4625,-0.0076,1.4625,0.0000,0.0076,0.180,0.003,11.840,0.000,74.440
8.355,1.4740,-0.0075,1.4740,0.0000,0.0075,0.180,0.001,11.840,0.000,74.440
8.381,1.4814,-0.0074,1.4814,0.0000,0.0074,0.180,0.001,11.850,0.000,75.000
8.493,1.4890,-0.0074,1.4890,0.0000,0.0074,0.180,-0.001,11.840,0.000,74.440
8.495,1.5005,-0.0073,1.5005,0.0000,0.0073,0.180,-0.001,11.840,0.000,74.440
8.512,1.5081,-0.0072,1.5081,0.0000,0.0072,0.180,-0.007,11.840,0.000,74.440
8.614,1.5158,-0.0072,1.5158,0.0000,0.0072,0.180,-0.011,11.840,0.000,74.440
8.629,1.5274,-0.0071,1.5274,0.0000,0.0071,0.180,-0.011,11.850,0.000,75.000
8.731,1.5350,-0.0071,1.5350,0.0000,0.0071,0.180,-0.011,11.840,0.000,74.440
8.772,1.5427,-0.0070,1.5427,0.0000,0.0070,0.180,-0.014,11.840,0.000,74.440
8.914,1.5542,-0.0069,1.5542,0.0000,0.0069,0.180,-0.020,11.820,0.000,73.330
8.921,1.5620,-0.0069,1.5620,0.0000,0.0069,0.180,-0.020,11.820,0.000,73.330
8.928,1.5695,-0.0069,1.5695,0.0000,0.0069,0.180,-0.020,11.820,0.000,73.330
8.983,1.5810,-0.0068,1.5810,0.0000,0.0068,0.180,-0.023,11.840,0.000,74.440
9.006,1.5887,-0.0068,1.5887,0.0000,0.0068,0.180,-0.023,11.820,0.000,73.330
9.022,1.5963,-0.0068,1.5963,0.0000,0.0068,0.180,-0.026,11.820,0.000,73.330
9.096,1.6079,-0.0068,1.6079,0.0000,0.0068,0.180,-0.026,11.850,0.000,75.000
9.144,1.6157,-0.0067,1.6157,0.0000,0.0067,0.180,-0.030,11.850,0.000,75.000
9.214,1.6233,-0.0067,1.6233,0.0000,0.0067,0.180,-0.034,11.820,0.000,73.330
9.243,1.6349,-0.0067,1.6349,0.0000,0.0067,0.180,-0.034,11.850,0.000,75.000
9.374,1.6428,-0.0067,1.6428,0.0000,0.0067,0.180,-0.039,11.820,0.000,73.330
9.381,1.6504,-0.0067,1.6504,0.0000,0.0067,0.180,-0.039,11.820,0.000,73.330
9.494,1.6619,-0.0068,1.6619,0.0000,0.0068,0.180,-0.041,11.850,0.000,75.000
9.496,1.6696,-0.0068,1.6696,0.0000,0.0068,0.180,-0.041,11.850,0.000,75.000
9.498,1.6771,-0.0069,1.6771,0.0000,0.0069,0.180,-0.041,11.840,0.000,74.440
9.575,1.6885,-0.0069,1.6885,0.0000,0.0069,0.180,-0.052,11.820,0.000,73.330
9.583,1.6962,-0.0070,1.6962,0.0000,0.0070,0.180,-0.052,11.820,0.000,73.330
9.636,1.7077,-0.0071,1.7077,0.0000,0.0071,0.180,-0.054,11.800,0.000,72.220
9.705,1.7152,-0.0072,1.7152,0.0000,0.0072,0.180,-0.057,11.800,0.000,72.220
9.756,1.7229,-0.0073,1.7229,0.0000,0.0073,0.180,-0.064,11.850,0.000,75.000
9.772,1.7345,-0.0075,1.7345,0.0000,0.0075,0.180,-0.064,11.820,0.000,73.330
9.850,1.7421,-0.0076,1.7421,0.0000,0.0076,0.180,-0.064,11.820,0.000,73.330
9.892,1.7499,-0.0078,1.7499,0.0000,0.0078,0.180,-0.066,11.850,0.000,75.000
9.926,1.7613,-0.0081,1.7615,-0.0002,0.0078,0.180,-0.068,11.840,0.000,74.440
10.000,1.7690,-0.0083,1.7692,-0.0004,0.0079,0.180,-0.068,11.820,0.000,73.330
10.023,1.7766,-0.0085,1.7768,-0.0005,0.0080,0.180,-0.069,11.820,0.000,73.330
10.084,1.7879,-0.0089,1.7880,-0.0007,0.0082,0.180,-0.069,11.840,0.000,74.440
10.118,1.7956,-0.0092,1.7957,-0.0009,0.0083,0.180,-0.074,11.840,0.000,74.440
10.228,1.8034,-0.0095,1.8036,-0.0011,0.0085,0.180,-0.075,11.820,0.000,73.330
10.236,1.8149,-0.0100,1.8151,-0.0013,0.0087,0.180,-0.075,11.820,0.000,73.330
10.288,1.8225,-0.0103,1.8230,-0.0016,0.0088,0.180,-0.078,11.840,0.000,74.440
10.363,1.8304,-0.0107,1.8309,-0.0021,0.0087,0.180,-0.080,11.850,0.000,75.000
10.404,1.8420,-0.0113,1.8425,-0.0028,0.0086,0.180,-0.080,11.840,0.000,74.440
10.492,1.8496,-0.0117,1.8501,-0.0032,0.0086,0.180,-0.083,11.820,0.000,73.330
10.504,1.8575,-0.0122,1.8580,-0.0037,0.0085,0.180,-0.083,11.840,0.000,74.440
10.583,1.8690,-0.0129,1.8695,-0.0043,0.0086,0.180,-0.085,11.840,0.000,74.440
10.751,1.8765,-0.0134,1.8770,-0.0048,0.0086,0.180,-0.089,11.820,0.000,73.330
10.758,1.8841,-0.0139,1.8846,-0.0052,0.0087,0.180,-0.093,11.850,0.000,75.000
10.764,1.8954,-0.0147,1.8963,-0.0063,0.0085,0.180,-0.093,11.840,0.000,74.440
10.769,1.9029,-0.0153,1.9038,-0.0070,0.0083,0.180,-0.093,11.840,0.000,74.440
10.793,1.9105,-0.0159,1.9113,-0.0078,0.0082,0.180,-0.093,11.850,0.000,75.000
10.859,1.9219,-0.0169,1.9227,-0.0089,0.0081,0.180,-0.096,11.820,0.000,73.330
10.993,1.9296,-0.0176,1.9304,-0.0096,0.0080,0.180,-0.096,11.850,0.000,75.000
10.996,1.9411,-0.0187,1.9419,-0.0108,0.0079,0.180,-0.096,11.850,0.000,75.000
10.998,1.9487,-0.0194,1.9495,-0.0115,0.0079,0.180,-0.096,11.820,0.000,73.330
11.070,1.9564,-0.0202,1.9575,-0.0124,0.0079,0.180,-0.098,11.850,0.000,75.000
11.088,1.9678,-0.0214,1.9688,-0.0139,0.0075,0.180,-0.098,11.850,0.000,75.000
11.174,1.9753,-0.0223,1.9764,-0.0150,0.0073,0.180,-0.102,11.820,0.000,73.330
11.190,1.9825,-0.0231,1.9834,-0.0160,0.0072,0.180,-0.102,11.840,0.000,74.440
11.252,1.9938,-0.0244,1.9948,-0.0175,0.0070,0.180,-0.102,11.840,0.000,74.440
11.299,2.0013,-0.0254,2.0023,-0.0186,0.0068,0.180,-0.105,11.850,0.000,75.000
11.340,2.0090,-0.0263,2.0099,-0.0196,0.0068,0.180,-0.106,11.840,0.000,74.440
11.388,2.0204,-0.0279,2.0213,-0.0212,0.0067,0.180,-0.105,11.820,0.000,73.330
11.493,2.0280,-0.0289,2.0291,-0.0225,0.0065,0.180,-0.107,11.840,0.000,74.440
11.495,2.0357,-0.0300,2.0368,-0.0239,0.0062,0.180,-0.107,11.840,0.000,74.440
11.534,2.0473,-0.0317,2.0483,-0.0259,0.0059,0.180,-0.107,11.820,0.000,73.330
11.595,2.0398,-0.0306,2.0409,-0.0246,0.0061,0.180,-0.111,11.820,0.000,73.330
11.612,2.0509,-0.0323,2.0519,-0.0266,0.0058,0.180,-0.104,11.840,0.000,74.440
11.729,2.0585,-0.0335,2.0595,-0.0279,0.0057,0.180,-0.106,11.840,0.000,74.440
11.845,2.0655,-0.0347,2.0665,-0.0292,0.0056,0.180,-0.106,11.840,0.000,74.440
11.852,2.0769,-0.0366,2.0778,-0.0312,0.0055,0.180,-0.106,11.840,0.000,74.440
11.859,2.0844,-0.0380,2.0854,-0.0325,0.0055,0.180,-0.106,11.820,0.000,73.330
11.907,2.0920,-0.0393,2.0931,-0.0340,0.0055,0.180,-0.104,11.850,0.000,75.000
11.991,2.1032,-0.0414,2.1043,-0.0365,0.0051,0.180,-0.104,11.800,0.000,72.220
12.021,2.1107,-0.0429,2.1118,-0.0381,0.0049,0.180,-0.106,11.820,0.000,73.330
12.035,2.1184,-0.0444,2.1194,-0.0398,0.0047,0.180,-0.106,11.870,0.000,76.110
12.150,2.1297,-0.0467,2.1307,-0.0422,0.0046,0.180,-0.104,11.840,0.000,74.440
12.271,2.1371,-0.0483,2.1381,-0.0439,0.0045,0.180,-0.104,11.840,0.000,74.440
12.279,2.1447,-0.0499,2.1457,-0.0455,0.0045,0.180,-0.104,11.840,0.000,74.440
12.285,2.1560,-0.0524,2.1570,-0.0480,0.0045,0.180,-0.104,11.840,0.000,74.440
12.302,2.1635,-0.0541,2.1645,-0.0499,0.0043,0.180,-0.104,11.850,0.000,75.000
12.333,2.1746,-0.0567,2.1756,-0.0528,0.0040,0.180,-0.104,11.820,0.000,73.330
12.404,2.1818,-0.0584,2.1828,-0.0547,0.0039,0.180,-0.106,11.850,0.000,75.000
12.493,2.1894,-0.0603,2.1904,-0.0567,0.0037,0.180,-0.107,11.870,0.000,76.110
12.495,2.2006,-0.0631,2.2015,-0.0596,0.0036,0.180,-0.107,11.870,0.000,76.110
12.524,2.2078,-0.0649,2.2087,-0.0615,0.0036,0.180,-0.107,11.820,0.000,73.330
12.581,2.2153,-0.0669,2.2162,-0.0634,0.0036,0.180,-0.107,11.840,0.000,74.440
12.639,2.2264,-0.0698,2.2274,-0.0664,0.0036,0.180,-0.105,11.840,0.000,74.440
12.683,2.2337,-0.0718,2.2347,-0.0686,0.0033,0.180,-0.108,11.840,0.000,74.440
12.728,2.2412,-0.0739,2.2421,-0.0709,0.0031,0.180,-0.108,11.850,0.000,75.000
12.787,2.2523,-0.0770,2.2531,-0.0742,0.0029,0.180,-0.108,11.840,0.000,74.440
12.822,2.2596,-0.0791,2.2604,-0.0764,0.0027,0.180,-0.113,11.850,0.000,75.000
12.920,2.2671,-0.0812,2.2679,-0.0787,0.0026,0.180,-0.115,11.820,0.000,73.330
