t,x,y,ref_x,ref_y,err,v,w,voltage,current,percentage
0.008,0.0000,-0.0000,0.0000,0.0000,0.0000,0.180,-0.003,12.040,0.000,85.550
0.015,0.0000,0.0000,0.0000,0.0000,0.0000,0.180,-0.003,12.040,0.000,85.550
0.117,0.0000,0.0000,0.0000,0.0000,0.0000,0.180,-0.003,12.060,0.000,86.660
0.118,0.0000,0.0000,0.0000,0.0000,0.0000,0.180,-0.003,12.060,0.000,86.660
0.164,0.0000,0.0000,0.0000,0.0000,0.0000,0.180,-0.002,11.930,0.000,79.440
0.229,-0.0000,0.0000,0.0000,0.0000,0.0000,0.180,0.005,11.820,0.000,73.330
0.276,0.0064,-0.0000,0.0064,0.0000,0.0000,0.180,0.020,11.840,0.000,74.440
0.313,0.0134,-0.0001,0.0134,0.0000,0.0001,0.180,0.025,11.870,0.000,76.110
0.381,0.0210,-0.0002,0.0210,0.0000,0.0002,0.180,0.025,11.870,0.000,76.110
0.438,0.0326,-0.0004,0.0326,0.0000,0.0004,0.180,0.026,11.910,0.000,78.330
0.485,0.0403,-0.0005,0.0403,0.0000,0.0005,0.180,0.028,11.870,0.000,76.110
0.525,0.0479,-0.0006,0.0479,0.0000,0.0006,0.180,0.026,11.850,0.000,75.000
0.567,0.0596,-0.0007,0.0596,0.0000,0.0007,0.180,0.022,11.910,0.000,78.330
0.610,0.0674,-0.0008,0.0674,0.0000,0.0008,0.180,0.020,11.850,0.000,75.000
0.684,0.0750,-0.0009,0.0750,0.0000,0.0009,0.180,0.020,11.850,0.000,75.000
0.743,0.0868,-0.0010,0.0868,0.0000,0.0010,0.180,0.020,11.890,0.000,77.220
0.785,0.0947,-0.0010,0.0947,0.0000,0.0010,0.180,0.018,11.890,0.000,77.220
0.822,0.1021,-0.0011,0.1021,0.0000,0.0011,0.180,0.017,11.870,0.000,76.110
0.867,0.1137,-0.0012,0.1137,0.0000,0.0012,0.180,0.016,11.890,0.000,77.220
0.910,0.1215,-0.0012,0.1215,0.0000,0.0012,0.180,0.016,11.890,0.000,77.220
0.972,0.1289,-0.0013,0.1289,0.0000,0.0013,0.180,0.015,11.870,0.000,76.110
1.014,0.1403,-0.0014,0.1403,0.0000,0.0014,0.180,0.014,11.870,0.000,76.110
1.077,0.1481,-0.0014,0.1481,0.0000,0.0014,0.180,0.014,11.890,0.000,77.220
1.116,0.1592,-0.0015,0.1592,0.0000,0.0015,0.180,0.015,11.890,0.000,77.220
1.179,0.1668,-0.0015,0.1668,0.0000,0.0015,0.180,0.015,11.870,0.000,76.110
1.208,0.1746,-0.0016,0.1746,0.0000,0.0016,0.180,0.016,11.870,0.000,76.110
1.270,0.1823,-0.0016,0.1823,0.0000,0.0016,0.180,0.016,11.890,0.000,77.220
1.313,0.1938,-0.0017,0.1938,0.0000,0.0017,0.180,0.017,11.850,0.000,75.000
1.374,0.2016,-0.0018,0.2016,0.0000,0.0018,0.180,0.017,11.890,0.000,77.220
1.417,0.2132,-0.0019,0.2132,0.0000,0.0019,0.180,0.017,11.890,0.000,77.220
1.461,0.2208,-0.0019,0.2208,0.0000,0.0019,0.180,0.019,11.850,0.000,75.000
1.522,0.2284,-0.0020,0.2284,0.0000,0.0020,0.180,0.020,11.870,0.000,76.110
1.571,0.2399,-0.0021,0.2399,0.0000,0.0021,0.180,0.020,11.890,0.000,77.220
1.611,0.2476,-0.0022,0.2476,0.0000,0.0022,0.180,0.021,11.850,0.000,75.000
1.675,0.2552,-0.0022,0.2552,0.0000,0.0022,0.180,0.020,11.870,0.000,76.110
1.717,0.2668,-0.0023,0.2668,0.0000,0.0023,0.180,0.020,11.910,0.000,78.330
1.846,0.2747,-0.0024,0.2747,0.0000,0.0024,0.180,0.018,11.870,0.000,76.110
1.847,0.2823,-0.0024,0.2823,0.0000,0.0024,0.180,0.014,11.870,0.000,76.110
1.880,0.2936,-0.0025,0.2936,0.0000,0.0025,0.180,0.014,11.870,0.000,76.110
1.914,0.3015,-0.0025,0.3015,0.0000,0.0025,0.180,0.014,11.850,0.000,75.000
1.970,0.3091,-0.0026,0.3091,0.0000,0.0026,0.180,0.013,11.850,0.000,75.000
2.015,0.3202,-0.0026,0.3202,0.0000,0.0026,0.180,0.012,11.870,0.000,76.110
2.074,0.3280,-0.0026,0.3280,0.0000,0.0026,0.180,0.012,11.850,0.000,75.000
2.121,0.3355,-0.0027,0.3355,0.0000,0.0027,0.180,0.012,11.850,0.000,75.000
2.179,0.3469,-0.0027,0.3469,0.0000,0.0027,0.180,0.012,11.870,0.000,76.110
2.219,0.3546,-0.0028,0.3546,0.0000,0.0028,0.180,0.012,11.870,0.000,76.110
2.268,0.3657,-0.0028,0.3657,0.0000,0.0028,0.180,0.012,11.850,0.000,75.000
2.313,0.3733,-0.0028,0.3733,0.0000,0.0028,0.180,0.011,11.870,0.000,76.110
2.377,0.3810,-0.0029,0.3810,0.0000,0.0029,0.180,0.011,11.890,0.000,77.220
2.414,0.3926,-0.0029,0.3926,0.0000,0.0029,0.180,0.012,11.870,0.000,76.110
2.479,0.4004,-0.0029,0.4004,0.0000,0.0029,0.180,0.012,11.870,0.000,76.110
2.519,0.4081,-0.0030,0.4081,0.0000,0.0030,0.180,0.013,11.870,0.000,76.110
2.567,0.4196,-0.0030,0.4196,0.0000,0.0030,0.180,0.014,11.890,0.000,77.220
2.612,0.4273,-0.0030,0.4273,0.0000,0.0030,0.180,0.013,11.870,0.000,76.110
2.670,0.4349,-0.0031,0.4349,0.0000,0.0031,0.180,0.013,11.850,0.000,75.000
2.715,0.4459,-0.0031,0.4459,0.0000,0.0031,0.180,0.013,11.850,0.000,75.000
2.774,0.4536,-0.0032,0.4536,0.0000,0.0032,0.180,0.012,11.870,0.000,76.110
2.817,0.4613,-0.0032,0.4613,0.0000,0.0032,0.180,0.012,11.850,0.000,75.000
2.867,0.4729,-0.0032,0.4729,0.0000,0.0032,0.180,0.010,11.870,0.000,76.110
2.924,0.4807,-0.0032,0.4807,0.0000,0.0032,0.180,0.010,11.870,0.000,76.110
2.966,0.4924,-0.0032,0.4924,0.0000,0.0032,0.180,0.008,11.840,0.000,74.440
3.010,0.5001,-0.0032,0.5001,0.0000,0.0032,0.180,0.008,11.850,0.000,75.000
3.071,0.5079,-0.0033,0.5079,0.0000,0.0033,0.180,0.008,11.870,0.000,76.110
3.125,0.5156,-0.0033,0.5156,0.0000,0.0033,0.180,0.008,11.870,0.000,76.110
3.176,0.5271,-0.0033,0.5271,0.0000,0.0033,0.180,0.010,11.870,0.000,76.110
3.210,0.5347,-0.0033,0.5347,0.0000,0.0033,0.180,0.010,11.870,0.000,76.110
3.269,0.5423,-0.0033,0.5423,0.0000,0.0033,0.180,0.011,11.870,0.000,76.110
3.313,0.5537,-0.0034,0.5537,0.0000,0.0034,0.180,0.011,11.850,0.000,75.000
3.380,0.5613,-0.0034,0.5613,0.0000,0.0034,0.180,0.011,11.850,0.000,75.000
3.417,0.5727,-0.0034,0.5727,0.0000,0.0034,0.180,0.011,11.870,0.000,76.110
3.475,0.5805,-0.0034,0.5805,0.0000,0.0034,0.180,0.010,11.870,0.000,76.110
3.520,0.5882,-0.0034,0.5882,0.0000,0.0034,0.180,0.010,11.850,0.000,75.000
3.568,0.5997,-0.0035,0.5997,0.0000,0.0035,0.180,0.011,11.890,0.000,77.220
3.613,0.6076,-0.0035,0.6076,0.0000,0.0035,0.180,0.014,11.870,0.000,76.110
3.678,0.6152,-0.0035,0.6152,0.0000,0.0035,0.180,0.014,11.850,0.000,75.000
3.721,0.6267,-0.0035,0.6267,0.0000,0.0035,0.180,0.013,11.890,0.000,77.220
3.762,0.6345,-0.0036,0.6345,0.0000,0.0036,0.180,0.015,11.870,0.000,76.110
3.819,0.6420,-0.0036,0.6420,0.0000,0.0036,0.180,0.014,11.850,0.000,75.000
3.868,0.6535,-0.0036,0.6535,0.0000,0.0036,0.180,0.014,11.870,0.000,76.110
3.917,0.6612,-0.0037,0.6612,0.0000,0.0037,0.180,0.014,11.870,0.000,76.110
3.975,0.6689,-0.0037,0.6689,0.0000,0.0037,0.180,0.012,11.850,0.000,75.000
4.016,0.6805,-0.0037,0.6805,0.0000,0.0037,0.180,0.012,11.850,0.000,75.000
4.075,0.6883,-0.0037,0.6883,0.0000,0.0037,0.180,0.011,11.890,0.000,77.220
4.120,0.6962,-0.0037,0.6962,0.0000,0.0037,0.180,0.011,11.870,0.000,76.110
4.166,0.7078,-0.0037,0.7078,0.0000,0.0037,0.180,0.008,11.870,0.000,76.110
4.214,0.7155,-0.0037,0.7155,0.0000,0.0037,0.180,0.007,11.890,0.000,77.220
4.273,0.7233,-0.0037,0.7233,0.0000,0.0037,0.180,0.008,11.870,0.000,76.110
4.314,0.7348,-0.0037,0.7348,0.0000,0.0037,0.180,0.008,11.850,0.000,75.000
4.377,0.7423,-0.0037,0.7423,0.0000,0.0037,0.180,0.008,11.870,0.000,76.110
4.420,0.7500,-0.0037,0.7500,0.0000,0.0037,0.180,0.008,11.890,0.000,77.220
4.468,0.7615,-0.0037,0.7615,0.0000,0.0037,0.180,0.009,11.850,0.000,75.000
4.523,0.7689,-0.0037,0.7689,0.0000,0.0037,0.180,0.009,11.850,0.000,75.000
4.571,0.7800,-0.0038,0.7800,0.0000,0.0038,0.180,0.011,11.870,0.000,76.110
4.614,0.7878,-0.0038,0.7878,0.0000,0.0038,0.180,0.011,11.850,0.000,75.000
4.672,0.7953,-0.0038,0.7953,0.0000,0.0038,0.180,0.012,11.850,0.000,75.000
4.716,0.8032,-0.0038,0.8032,0.0000,0.0038,0.180,0.014,11.870,0.000,76.110
4.764,0.8148,-0.0038,0.8148,0.0000,0.0038,0.180,0.014,11.890,0.000,77.220
4.810,0.8224,-0.0038,0.8224,0.0000,0.0038,0.180,0.014,11.840,0.000,74.440
4.870,0.8301,-0.0039,0.8301,0.0000,0.0039,0.180,0.015,11.870,0.000,76.110
4.913,0.8416,-0.0039,0.8416,0.0000,0.0039,0.180,0.015,11.890,0.000,77.220
4.974,0.8493,-0.0039,0.8493,0.0000,0.0039,0.180,0.014,11.840,0.000,74.440
5.016,0.8602,-0.0039,0.8602,0.0000,0.0039,0.180,0.014,11.840,0.000,74.440
5.076,0.8680,-0.0039,0.8680,0.0000,0.0039,0.180,0.015,11.870,0.000,76.110
5.120,0.8757,-0.0040,0.8757,0.0000,0.0040,0.180,0.015,11.820,0.000,73.330
5.166,0.8871,-0.0040,0.8871,0.0000,0.0040,0.180,0.012,11.870,0.000,76.110
5.215,0.8951,-0.0040,0.8951,0.0000,0.0040,0.180,0.009,11.890,0.000,77.220
5.273,0.9030,-0.0040,0.9030,0.0000,0.0040,0.180,0.007,11.840,0.000,74.440
5.313,0.9146,-0.0039,0.9146,0.0000,0.0039,0.180,0.006,11.850,0.000,75.000
5.375,0.9222,-0.0039,0.9222,0.0000,0.0039,0.180,0.006,11.850,0.000,75.000
5.422,0.9301,-0.0039,0.9301,0.0000,0.0039,0.180,0.006,11.870,0.000,76.110
5.463,0.9416,-0.0039,0.9416,0.0000,0.0039,0.180,0.007,11.850,0.000,75.000
5.512,0.9491,-0.0039,0.9491,0.0000,0.0039,0.180,0.007,11.870,0.000,76.110
5.570,0.9568,-0.0039,0.9568,0.0000,0.0039,0.180,0.008,11.870,0.000,76.110
5.614,0.9678,-0.0039,0.9678,0.0000,0.0039,0.180,0.008,11.840,0.000,74.440
5.694,0.9752,-0.0039,0.9752,0.0000,0.0039,0.180,0.008,11.850,0.000,75.000
5.715,0.9864,-0.0038,0.9864,0.0000,0.0038,0.180,0.008,11.890,0.000,77.220
5.776,0.9942,-0.0038,0.9942,0.0000,0.0038,0.180,0.009,11.840,0.000,74.440
5.826,1.0017,-0.0038,1.0017,0.0000,0.0038,0.180,0.009,11.850,0.000,75.000
5.867,1.0133,-0.0038,1.0133,0.0000,0.0038,0.180,0.010,11.870,0.000,76.110
5.913,1.0211,-0.0038,1.0211,0.0000,0.0038,0.180,0.011,11.870,0.000,76.110
5.973,1.0282,-0.0038,1.0282,0.0000,0.0038,0.180,0.011,11.850,0.000,75.000
6.010,1.0398,-0.0038,1.0398,0.0000,0.0038,0.180,0.012,11.890,0.000,77.220
6.077,1.0476,-0.0038,1.0476,0.0000,0.0038,0.180,0.012,11.890,0.000,77.220
6.117,1.0551,-0.0038,1.0551,0.0000,0.0038,0.180,0.012,11.840,0.000,74.440
6.166,1.0666,-0.0038,1.0666,0.0000,0.0038,0.180,0.012,11.890,0.000,77.220
6.210,1.0744,-0.0038,1.0744,0.0000,0.0038,0.180,0.011,11.890,0.000,77.220
6.269,1.0821,-0.0038,1.0821,0.0000,0.0038,0.180,0.008,11.850,0.000,75.000
6.312,1.0935,-0.0038,1.0935,0.0000,0.0038,0.180,0.006,11.870,0.000,76.110
6.373,1.1015,-0.0037,1.1015,0.0000,0.0037,0.180,0.005,11.890,0.000,77.220
6.418,1.1093,-0.0037,1.1093,0.0000,0.0037,0.180,0.005,11.870,0.000,76.110
6.465,1.1208,-0.0037,1.1208,0.0000,0.0037,0.180,0.005,11.850,0.000,75.000
6.512,1.1286,-0.0036,1.1286,0.0000,0.0036,0.180,0.004,11.870,0.000,76.110
6.568,1.1364,-0.0036,1.1364,0.0000,0.0036,0.180,0.005,11.850,0.000,75.000
6.613,1.1479,-0.0036,1.1479,0.0000,0.0036,0.180,0.005,11.850,0.000,75.000
6.678,1.1554,-0.0035,1.1554,0.0000,0.0035,0.180,0.005,11.890,0.000,77.220
6.716,1.1668,-0.0035,1.1668,0.0000,0.0035,0.175,0.007,11.870,0.000,76.110
6.762,1.1745,-0.0035,1.1745,0.0000,0.0035,0.175,0.007,11.850,0.000,75.000
6.823,1.1819,-0.0034,1.1819,0.0000,0.0034,0.173,0.007,11.870,0.000,76.110
6.869,1.1929,-0.0034,1.1929,0.0000,0.0034,0.167,0.008,11.870,0.000,76.110
6.911,1.2002,-0.0034,1.2002,0.0000,0.0034,0.165,0.008,11.850,0.000,75.000
6.994,1.2074,-0.0034,1.2074,0.0000,0.0034,0.163,0.009,11.850,0.000,75.000
7.019,1.2179,-0.0033,1.2179,0.0000,0.0033,0.163,0.009,11.850,0.000,75.000
7.075,1.2248,-0.0033,1.2248,0.0000,0.0033,0.158,0.011,11.840,0.000,74.440
7.122,1.2313,-0.0033,1.2313,0.0000,0.0033,0.158,0.011,11.850,0.000,75.000
7.167,1.2415,-0.0033,1.2415,0.0000,0.0033,0.153,0.014,11.840,0.000,74.440
7.212,1.2478,-0.0033,1.2478,0.0000,0.0033,0.151,0.013,11.840,0.000,74.440
7.275,1.2543,-0.0033,1.2543,0.0000,0.0033,0.149,0.014,11.850,0.000,75.000
7.318,1.2639,-0.0033,1.2639,0.0000,0.0033,0.149,0.014,11.840,0.000,74.440
7.378,1.2702,-0.0033,1.2702,0.0000,0.0033,0.146,0.014,11.850,0.000,75.000
7.419,1.2765,-0.0033,1.2765,0.0000,0.0033,0.144,0.015,11.820,0.000,73.330
7.468,1.2854,-0.0033,1.2854,0.0000,0.0033,0.139,0.014,11.850,0.000,75.000
7.512,1.2915,-0.0033,1.2915,0.0000,0.0033,0.138,0.013,11.840,0.000,74.440
7.571,1.2974,-0.0033,1.2974,0.0000,0.0033,0.136,0.012,11.850,0.000,75.000
7.615,1.3063,-0.0032,1.3063,0.0000,0.0032,0.133,0.010,11.820,0.000,73.330
7.677,1.3119,-0.0032,1.3119,0.0000,0.0032,0.133,0.010,11.850,0.000,75.000
7.719,1.3176,-0.0032,1.3176,0.0000,0.0032,0.131,0.009,11.840,0.000,74.440
7.784,1.3260,-0.0032,1.3260,0.0000,0.0032,0.130,0.008,11.850,0.000,75.000
7.809,1.3317,-0.0031,1.3317,0.0000,0.0031,0.126,0.008,11.850,0.000,75.000
7.871,1.3370,-0.0031,1.3370,0.0000,0.0031,0.124,0.009,11.840,0.000,74.440
7.925,1.3449,-0.0031,1.3449,0.0000,0.0031,0.124,0.009,11.850,0.000,75.000
7.976,1.3497,-0.0031,1.3497,0.0000,0.0031,0.120,0.009,11.850,0.000,75.000
8.015,1.3574,-0.0030,1.3574,0.0000,0.0030,0.118,0.010,11.820,0.000,73.330
8.064,1.3624,-0.0030,1.3624,0.0000,0.0030,0.118,0.010,11.850,0.000,75.000
8.119,1.3676,-0.0030,1.3676,0.0000,0.0030,0.116,0.010,11.840,0.000,74.440
8.169,1.3747,-0.0030,1.3747,0.0000,0.0030,0.113,0.010,11.850,0.000,75.000
8.242,1.3794,-0.0029,1.3794,0.0000,0.0029,0.113,0.010,11.850,0.000,75.000
8.275,1.3839,-0.0029,1.3839,0.0000,0.0029,0.110,0.009,11.850,0.000,75.000
8.319,1.3910,-0.0029,1.3910,0.0000,0.0029,0.110,0.009,11.840,0.000,74.440
8.374,1.3956,-0.0029,1.3956,0.0000,0.0029,0.106,0.008,11.870,0.000,76.110
8.418,1.4001,-0.0028,1.4001,0.0000,0.0028,0.106,0.008,11.850,0.000,75.000
8.466,1.4062,-0.0028,1.4062,0.0000,0.0028,0.105,0.008,11.850,0.000,75.000
8.512,1.4105,-0.0028,1.4105,0.0000,0.0028,0.102,0.008,11.870,0.000,76.110
8.571,1.4146,-0.0028,1.4146,0.0000,0.0028,0.101,0.009,11.850,0.000,75.000
8.611,1.4210,-0.0027,1.4210,0.0000,0.0027,0.099,0.010,11.850,0.000,75.000
8.672,1.4253,-0.0027,1.4253,0.0000,0.0027,0.097,0.011,11.870,0.000,76.110
8.717,1.4297,-0.0027,1.4297,0.0000,0.0027,0.097,0.011,11.850,0.000,75.000
8.776,1.4357,-0.0027,1.4357,0.0000,0.0027,0.094,0.012,11.870,0.000,76.110
8.809,1.4396,-0.0027,1.4396,0.0000,0.0027,0.093,0.013,11.850,0.000,75.000
8.869,1.4434,-0.0026,1.4434,0.0000,0.0026,0.092,0.013,11.870,0.000,76.110
8.915,1.4490,-0.0026,1.4490,0.0000,0.0026,0.090,0.013,11.870,0.000,76.110
8.976,1.4529,-0.0026,1.4529,0.0000,0.0026,0.089,0.013,11.870,0.000,76.110
9.015,1.4586,-0.0026,1.4586,0.0000,0.0026,0.087,0.012,11.870,0.000,76.110
9.061,1.4624,-0.0026,1.4624,0.0000,0.0026,0.087,0.012,11.890,0.000,77.220
9.117,1.4659,-0.0025,1.4659,0.0000,0.0025,0.086,0.011,11.890,0.000,77.220
9.166,1.4710,-0.0025,1.4710,0.0000,0.0025,0.085,0.011,11.890,0.000,77.220
9.211,1.4745,-0.0025,1.4745,0.0000,0.0025,0.083,0.009,11.890,0.000,77.220
9.270,1.4778,-0.0025,1.4778,0.0000,0.0025,0.082,0.009,11.870,0.000,76.110
9.310,1.4828,-0.0024,1.4828,0.0000,0.0024,0.080,0.009,11.870,0.000,76.110
9.372,1.4863,-0.0024,1.4863,0.0000,0.0024,0.079,0.008,11.890,0.000,77.220
9.415,1.4897,-0.0024,1.4897,0.0000,0.0024,0.078,0.008,11.890,0.000,77.220
9.475,1.4949,-0.0024,1.4949,0.0000,0.0024,0.077,0.008,11.890,0.000,77.220
9.522,1.4981,-0.0023,1.4981,0.0000,0.0023,0.077,0.008,11.890,0.000,77.220
9.569,1.5027,-0.0023,1.5027,0.0000,0.0023,0.074,0.007,11.890,0.000,77.220
9.609,1.5057,-0.0023,1.5057,0.0000,0.0023,0.073,0.007,11.910,0.000,78.330
9.675,1.5087,-0.0023,1.5087,0.0000,0.0023,0.072,0.005,11.890,0.000,77.220
9.716,1.5132,-0.0022,1.5132,0.0000,0.0022,0.072,0.005,11.890,0.000,77.220
9.764,1.5163,-0.0022,1.5163,0.0000,0.0022,0.071,0.006,11.890,0.000,77.220
9.820,1.5193,-0.0022,1.5193,0.0000,0.0022,0.070,0.006,11.890,0.000,77.220
9.867,1.5238,-0.0022,1.5238,0.0000,0.0022,0.068,0.004,11.890,0.000,77.220
9.913,1.5268,-0.0021,1.5268,0.0000,0.0021,0.067,0.004,11.930,0.000,79.440
9.974,1.5297,-0.0021,1.5297,0.0000,0.0021,0.066,0.005,11.930,0.000,79.440
10.012,1.5335,-0.0021,1.5335,0.0000,0.0021,0.065,0.004,11.890,0.000,77.220
10.073,1.5359,-0.0021,1.5359,0.0000,0.0021,0.064,0.002,11.890,0.000,77.220
10.117,1.5384,-0.0020,1.5384,0.0000,0.0020,0.064,0.002,11.890,0.000,77.220
10.167,1.5423,-0.0020,1.5423,0.0000,0.0020,0.062,0.004,11.910,0.000,78.330
10.211,1.5448,-0.0020,1.5448,0.0000,0.0020,0.062,0.004,11.890,0.000,77.220
10.270,1.5474,-0.0020,1.5474,0.0000,0.0020,0.061,0.002,11.890,0.000,77.220
10.311,1.5512,-0.0019,1.5512,0.0000,0.0019,0.060,0.002,11.890,0.000,77.220
10.377,1.5538,-0.0019,1.5538,0.0000,0.0019,0.060,0.002,11.910,0.000,78.330
10.417,1.5563,-0.0019,1.5563,0.0000,0.0019,0.059,0.003,11.930,0.000,79.440
10.466,1.5597,-0.0018,1.5597,0.0000,0.0018,0.058,0.003,11.930,0.000,79.440
10.521,1.5619,-0.0018,1.5619,0.0000,0.0018,0.057,0.003,11.910,0.000,78.330
10.568,1.5651,-0.0018,1.5651,0.0000,0.0018,0.055,0.002,11.930,0.000,79.440
10.614,1.5673,-0.0018,1.5673,0.0000,0.0018,0.055,0.003,11.910,0.000,78.330
10.678,1.5693,-0.0018,1.5693,0.0000,0.0018,0.055,0.003,11.930,0.000,79.440
10.715,1.5725,-0.0017,1.5725,0.0000,0.0017,0.053,0.002,11.930,0.000,79.440
10.762,1.5746,-0.0017,1.5746,0.0000,0.0017,0.053,0.002,11.930,0.000,79.440
10.834,1.5768,-0.0017,1.5768,0.0000,0.0017,0.052,0.001,11.930,0.000,79.440
10.868,1.5800,-0.0017,1.5800,0.0000,0.0017,0.051,0.002,11.930,0.000,79.440
10.914,1.5821,-0.0016,1.5821,0.0000,0.0016,0.050,0.002,11.930,0.000,79.440
11.020,1.5842,-0.0016,1.5842,0.0000,0.0016,0.050,0.002,11.930,0.000,79.440
11.021,1.5873,-0.0016,1.5873,0.0000,0.0016,0.050,0.002,11.930,0.000,79.440
11.075,1.5894,-0.0016,1.5894,0.0000,0.0016,0.050,-0.001,11.930,0.000,79.440
11.121,1.5916,-0.0015,1.5916,0.0000,0.0015,0.050,-0.001,11.910,0.000,78.330
11.166,1.5948,-0.0015,1.5948,0.0000,0.0015,0.050,-0.001,11.930,0.000,79.440
11.212,1.5969,-0.0015,1.5969,0.0000,0.0015,0.050,-0.002,11.910,0.000,78.330
11.272,1.5990,-0.0015,1.5990,0.0000,0.0015,0.050,-0.003,11.930,0.000,79.440
11.313,1.6022,-0.0014,1.6022,0.0000,0.0014,0.050,-0.003,11.910,0.000,78.330
11.362,1.6044,-0.0014,1.6044,0.0000,0.0014,0.050,-0.003,11.930,0.000,79.440
11.420,1.6065,-0.0014,1.6065,0.0000,0.0014,0.050,-0.003,11.950,0.000,80.550
11.468,1.6097,-0.0014,1.6097,0.0000,0.0014,0.050,-0.004,11.950,0.000,80.550
11.521,1.6118,-0.0013,1.6118,0.0000,0.0013,0.050,-0.004,11.930,0.000,79.440
11.571,1.6139,-0.0013,1.6139,0.0000,0.0013,0.050,-0.006,11.930,0.000,79.440
11.612,1.6172,-0.0013,1.6172,0.0000,0.0013,0.050,-0.006,11.950,0.000,80.550
11.677,1.6193,-0.0013,1.6193,0.0000,0.0013,0.050,-0.006,11.930,0.000,79.440
11.717,1.6214,-0.0012,1.6214,0.0000,0.0012,0.050,-0.006,11.930,0.000,79.440
11.765,1.6247,-0.0012,1.6247,0.0000,0.0012,0.050,-0.005,11.950,0.000,80.550
11.813,1.6268,-0.0012,1.6268,0.0000,0.0012,0.050,-0.006,11.950,0.000,80.550
11.873,1.6290,-0.0011,1.6290,0.0000,0.0011,0.050,-0.008,11.930,0.000,79.440
11.918,1.6322,-0.0011,1.6322,0.0000,0.0011,0.050,-0.008,11.950,0.000,80.550
11.985,1.6343,-0.0011,1.6343,0.0000,0.0011,0.050,-0.008,11.930,0.000,79.440
12.023,1.6376,-0.0011,1.6376,0.0000,0.0011,0.050,-0.005,11.930,0.000,79.440
12.089,1.6397,-0.0010,1.6397,0.0000,0.0010,0.050,-0.008,11.930,0.000,79.440
12.127,1.6419,-0.0010,1.6419,0.0000,0.0010,0.050,-0.008,11.950,0.000,80.550
12.172,1.6452,-0.0010,1.6452,0.0000,0.0010,0.050,-0.006,11.950,0.000,80.550
12.229,1.6473,-0.0009,1.6473,0.0000,0.0009,0.050,-0.005,11.930,0.000,79.440
12.286,1.6494,-0.0009,1.6494,0.0000,0.0009,0.050,-0.005,11.950,0.000,80.550
12.331,1.6526,-0.0009,1.6526,0.0000,0.0009,0.050,-0.008,11.930,0.000,79.440
12.384,1.6547,-0.0009,1.6547,0.0000,0.0009,0.050,-0.008,11.950,0.000,80.550
12.420,1.6569,-0.0008,1.6569,0.0000,0.0008,0.050,-0.008,11.930,0.000,79.440
12.467,1.6601,-0.0008,1.6601,0.0000,0.0008,0.050,-0.005,11.930,0.000,79.440
12.513,1.6623,-0.0008,1.6623,0.0000,0.0008,0.050,-0.007,11.930,0.000,79.440
12.572,1.6644,-0.0008,1.6644,0.0000,0.0008,0.050,-0.009,11.930,0.000,79.440
12.679,1.6676,-0.0007,1.6676,0.0000,0.0007,0.050,-0.009,11.930,0.000,79.440
12.680,1.6698,-0.0007,1.6698,0.0000,0.0007,0.050,-0.009,11.930,0.000,79.440
12.720,1.6719,-0.0007,1.6719,0.0000,0.0007,0.050,-0.009,11.930,0.000,79.440
12.764,1.6751,-0.0007,1.6751,0.0000,0.0007,0.050,-0.009,11.950,0.000,80.550
12.811,1.6772,-0.0006,1.6772,0.0000,0.0006,0.050,-0.010,11.930,0.000,79.440
12.871,1.6793,-0.0006,1.6793,0.0000,0.0006,0.050,-0.011,11.930,0.000,79.440
12.911,1.6825,-0.0006,1.6825,0.0000,0.0006,0.050,-0.012,11.930,0.000,79.440
12.974,1.6848,-0.0006,1.6848,0.0000,0.0006,0.050,-0.009,11.930,0.000,79.440
13.018,1.6868,-0.0005,1.6868,0.0000,0.0005,0.050,-0.009,11.950,0.000,80.550
13.064,1.6900,-0.0005,1.6900,0.0000,0.0005,0.050,-0.008,11.930,0.000,79.440
13.112,1.6921,-0.0005,1.6921,0.0000,0.0005,0.050,-0.008,11.930,0.000,79.440
