t,x,y,ref_x,ref_y,err,v,w,voltage,current,percentage
0.010,-0.0015,0.0519,0.0000,0.0519,0.0015,0.050,1.200,12.090,0.000,88.330
0.113,-0.0015,0.0519,0.0000,0.0519,0.0015,0.050,1.200,12.090,0.000,88.330
0.114,-0.0015,0.0519,0.0000,0.0519,0.0015,0.050,1.200,12.090,0.000,88.330
0.173,-0.0015,0.0519,0.0000,0.0519,0.0015,0.050,1.200,12.090,0.000,88.330
0.208,-0.0015,0.0518,0.0000,0.0518,0.0015,0.050,1.200,12.040,0.000,85.550
0.280,-0.0014,0.0505,0.0000,0.0505,0.0014,0.050,1.200,12.040,0.000,85.550
0.310,-0.0010,0.0476,0.0000,0.0476,0.0010,0.050,1.200,12.040,0.000,85.550
0.368,-0.0006,0.0458,0.0000,0.0458,0.0006,0.050,1.200,12.060,0.000,86.660
0.413,-0.0001,0.0436,0.0000,0.0436,0.0001,0.050,1.200,12.060,0.000,86.660
0.473,0.0008,0.0408,0.0000,0.0408,0.0008,0.050,1.200,12.060,0.000,86.660
0.504,0.0017,0.0387,0.0000,0.0387,0.0017,0.069,1.200,12.060,0.000,86.660
0.565,0.0025,0.0369,0.0000,0.0369,0.0025,0.080,1.200,12.080,0.000,87.770
0.630,0.0040,0.0340,0.0000,0.0340,0.0040,0.098,1.200,12.080,0.000,87.770
0.676,0.0053,0.0320,0.0000,0.0320,0.0053,0.098,1.200,12.060,0.000,86.660
0.759,0.0077,0.0285,0.0000,0.0285,0.0077,0.111,1.200,12.090,0.000,88.330
0.768,0.0096,0.0260,0.0000,0.0260,0.0096,0.147,1.200,12.090,0.000,88.330
0.821,0.0121,0.0234,0.0000,0.0234,0.0121,0.147,1.200,12.110,0.000,89.440
0.870,0.0164,0.0190,0.0000,0.0190,0.0164,0.176,1.200,12.080,0.000,87.770
0.908,0.0197,0.0161,0.0197,0.0000,0.0161,0.180,1.200,12.090,0.000,88.330
0.973,0.0234,0.0130,0.0234,0.0000,0.0130,0.180,1.200,12.110,0.000,89.440
1.011,0.0297,0.0083,0.0297,0.0000,0.0083,0.180,1.177,12.090,0.000,88.330
1.070,0.0344,0.0051,0.0344,0.0000,0.0051,0.180,1.113,12.090,0.000,88.330
1.116,0.0391,0.0022,0.0391,0.0000,0.0022,0.180,1.113,12.090,0.000,88.330
1.163,0.0465,-0.0021,0.0465,0.0000,0.0021,0.180,0.989,12.090,0.000,88.330
1.210,0.0516,-0.0047,0.0516,0.0000,0.0047,0.180,0.895,12.090,0.000,88.330
1.280,0.0569,-0.0072,0.0569,0.0000,0.0072,0.180,0.895,12.090,0.000,88.330
1.309,0.0653,-0.0108,0.0653,0.0000,0.0108,0.180,0.753,12.090,0.000,88.330
1.373,0.0713,-0.0131,0.0713,0.0000,0.0131,0.180,0.753,12.060,0.000,86.660
1.416,0.0775,-0.0152,0.0775,0.0000,0.0152,0.180,0.700,12.060,0.000,86.660
1.465,0.0873,-0.0183,0.0873,0.0000,0.0183,0.180,0.603,12.080,0.000,87.770
1.509,0.0941,-0.0203,0.0941,0.0000,0.0203,0.180,0.531,12.080,0.000,87.770
1.569,0.1012,-0.0220,0.1012,0.0000,0.0220,0.180,0.485,12.080,0.000,87.770
1.610,0.1119,-0.0244,0.1119,0.0000,0.0244,0.180,0.422,12.060,0.000,86.660
1.671,0.1196,-0.0259,0.1196,0.0000,0.0259,0.180,0.384,12.080,0.000,87.770
1.713,0.1272,-0.0272,0.1272,0.0000,0.0272,0.180,0.384,12.060,0.000,86.660
1.761,0.1385,-0.0289,0.1385,0.0000,0.0289,0.180,0.348,12.080,0.000,87.770
1.808,0.1461,-0.0299,0.1461,0.0000,0.0299,0.180,0.273,12.060,0.000,86.660
1.870,0.1540,-0.0308,0.1540,0.0000,0.0308,0.180,0.248,12.080,0.000,87.770
1.908,0.1653,-0.0319,0.1653,0.0000,0.0319,0.180,0.213,12.060,0.000,86.660
1.970,0.1730,-0.0325,0.1730,0.0000,0.0325,0.180,0.194,12.060,0.000,86.660
2.014,0.1804,-0.0330,0.1804,0.0000,0.0330,0.180,0.194,12.060,0.000,86.660
2.063,0.1919,-0.0337,0.1919,0.0000,0.0337,0.180,0.154,12.060,0.000,86.660
2.107,0.1996,-0.0341,0.1996,0.0000,0.0341,0.180,0.139,12.040,0.000,85.550
2.167,0.2073,-0.0345,0.2073,0.0000,0.0345,0.180,0.127,12.040,0.000,85.550
2.212,0.2188,-0.0349,0.2188,0.0000,0.0349,0.180,0.127,12.080,0.000,87.770
2.270,0.2259,-0.0351,0.2259,0.0000,0.0351,0.180,0.101,12.040,0.000,85.550
2.312,0.2371,-0.0354,0.2371,0.0000,0.0354,0.180,0.101,12.080,0.000,87.770
2.369,0.2449,-0.0355,0.2449,0.0000,0.0355,0.180,0.076,12.080,0.000,87.770
2.413,0.2527,-0.0356,0.2527,0.0000,0.0356,0.180,0.076,12.080,0.000,87.770
2.462,0.2641,-0.0357,0.2641,0.0000,0.0357,0.180,0.059,12.060,0.000,86.660
2.517,0.2716,-0.0357,0.2716,0.0000,0.0357,0.180,0.059,12.060,0.000,86.660
2.564,0.2828,-0.0357,0.2828,0.0000,0.0357,0.180,0.045,12.040,0.000,85.550
2.611,0.2906,-0.0357,0.2906,0.0000,0.0357,0.180,0.042,12.060,0.000,86.660
2.670,0.2981,-0.0357,0.2981,0.0000,0.0357,0.180,0.036,12.060,0.000,86.660
2.714,0.3095,-0.0356,0.3095,0.0000,0.0356,0.180,0.036,12.060,0.000,86.660
2.770,0.3172,-0.0355,0.3172,0.0000,0.0355,0.180,0.031,12.060,0.000,86.660
2.817,0.3248,-0.0354,0.3248,0.0000,0.0354,0.180,0.031,12.060,0.000,86.660
2.870,0.3362,-0.0353,0.3362,0.0000,0.0353,0.180,0.026,12.060,0.000,86.660
2.912,0.3441,-0.0352,0.3441,0.0000,0.0352,0.180,0.026,12.060,0.000,86.660
2.970,0.3518,-0.0351,0.3518,0.0000,0.0351,0.180,0.023,12.040,0.000,85.550
3.012,0.3634,-0.0349,0.3634,0.0000,0.0349,0.180,0.023,12.080,0.000,87.770
3.070,0.3712,-0.0348,0.3712,0.0000,0.0348,0.180,0.021,12.080,0.000,87.770
3.114,0.3789,-0.0347,0.3789,0.0000,0.0347,0.180,0.021,12.060,0.000,86.660
3.163,0.3904,-0.0345,0.3904,0.0000,0.0345,0.180,0.019,12.080,0.000,87.770
3.205,0.3981,-0.0344,0.3981,0.0000,0.0344,0.180,0.017,12.060,0.000,86.660
3.280,0.4058,-0.0343,0.4058,0.0000,0.0343,0.180,0.017,12.060,0.000,86.660
3.311,0.4171,-0.0341,0.4171,0.0000,0.0341,0.180,0.016,12.060,0.000,86.660
3.356,0.4248,-0.0339,0.4248,0.0000,0.0339,0.180,0.016,12.080,0.000,87.770
3.413,0.4325,-0.0338,0.4325,0.0000,0.0338,0.180,0.015,12.060,0.000,86.660
3.482,0.4442,-0.0336,0.4442,0.0000,0.0336,0.180,0.013,12.040,0.000,85.550
3.505,0.4515,-0.0334,0.4515,0.0000,0.0334,0.180,0.010,12.060,0.000,86.660
3.569,0.4593,-0.0332,0.4593,0.0000,0.0332,0.180,0.007,12.040,0.000,85.550
3.606,0.4710,-0.0330,0.4710,0.0000,0.0330,0.180,0.006,12.040,0.000,85.550
3.669,0.4788,-0.0328,0.4788,0.0000,0.0328,0.180,0.006,12.060,0.000,86.660
3.717,0.4865,-0.0326,0.4865,0.0000,0.0326,0.180,0.006,12.040,0.000,85.550
3.757,0.4980,-0.0324,0.4980,0.0000,0.0324,0.180,0.005,12.060,0.000,86.660
3.827,0.5056,-0.0322,0.5056,0.0000,0.0322,0.180,0.005,12.060,0.000,86.660
3.872,0.5132,-0.0320,0.5132,0.0000,0.0320,0.180,0.005,12.040,0.000,85.550
3.911,0.5245,-0.0317,0.5245,0.0000,0.0317,0.180,0.005,12.040,0.000,85.550
3.970,0.5323,-0.0316,0.5323,0.0000,0.0316,0.180,0.006,12.060,0.000,86.660
4.016,0.5399,-0.0314,0.5399,0.0000,0.0314,0.180,0.006,12.040,0.000,85.550
4.061,0.5515,-0.0311,0.5515,0.0000,0.0311,0.180,0.006,12.060,0.000,86.660
4.107,0.5592,-0.0309,0.5592,0.0000,0.0309,0.180,0.008,12.060,0.000,86.660
4.165,0.5670,-0.0308,0.5670,0.0000,0.0308,0.180,0.009,12.060,0.000,86.660
4.208,0.5785,-0.0305,0.5785,0.0000,0.0305,0.180,0.009,12.040,0.000,85.550
4.268,0.5863,-0.0304,0.5863,0.0000,0.0304,0.180,0.010,12.040,0.000,85.550
4.312,0.5939,-0.0302,0.5939,0.0000,0.0302,0.180,0.010,12.040,0.000,85.550
4.356,0.6055,-0.0300,0.6055,0.0000,0.0300,0.180,0.012,12.040,0.000,85.550
4.413,0.6126,-0.0298,0.6126,0.0000,0.0298,0.180,0.011,12.040,0.000,85.550
4.460,0.6241,-0.0296,0.6241,0.0000,0.0296,0.180,0.011,12.040,0.000,85.550
4.504,0.6317,-0.0294,0.6317,0.0000,0.0294,0.180,0.009,12.040,0.000,85.550
4.567,0.6394,-0.0292,0.6394,0.0000,0.0292,0.180,0.007,12.040,0.000,85.550
4.608,0.6506,-0.0290,0.6506,0.0000,0.0290,0.180,0.007,12.060,0.000,86.660
4.671,0.6584,-0.0288,0.6584,0.0000,0.0288,0.180,0.006,12.040,0.000,85.550
4.725,0.6661,-0.0286,0.6661,0.0000,0.0286,0.180,0.005,12.040,0.000,85.550
4.755,0.6778,-0.0283,0.6778,0.0000,0.0283,0.180,0.005,12.080,0.000,87.770
4.804,0.6857,-0.0281,0.6857,0.0000,0.0281,0.180,0.004,12.060,0.000,86.660
4.868,0.6932,-0.0280,0.6932,0.0000,0.0280,0.180,0.002,12.060,0.000,86.660
4.917,0.7048,-0.0277,0.7048,0.0000,0.0277,0.180,0.002,12.040,0.000,85.550
4.968,0.7124,-0.0275,0.7124,0.0000,0.0275,0.180,0.001,12.040,0.000,85.550
5.012,0.7200,-0.0273,0.7200,0.0000,0.0273,0.180,0.001,12.040,0.000,85.550
5.061,0.7313,-0.0270,0.7313,0.0000,0.0270,0.180,0.001,12.040,0.000,85.550
5.116,0.7391,-0.0268,0.7391,0.0000,0.0268,0.180,0.000,12.040,0.000,85.550
5.165,0.7466,-0.0266,0.7466,0.0000,0.0266,0.180,0.000,12.040,0.000,85.550
5.212,0.7581,-0.0263,0.7581,0.0000,0.0263,0.180,0.000,12.040,0.000,85.550
5.272,0.7660,-0.0261,0.7660,0.0000,0.0261,0.180,0.001,12.060,0.000,86.660
5.314,0.7736,-0.0259,0.7736,0.0000,0.0259,0.180,0.001,12.040,0.000,85.550
5.357,0.7852,-0.0256,0.7852,0.0000,0.0256,0.180,0.001,12.040,0.000,85.550
5.416,0.7926,-0.0254,0.7926,0.0000,0.0254,0.180,0.002,12.040,0.000,85.550
5.461,0.8041,-0.0251,0.8041,0.0000,0.0251,0.180,0.002,12.040,0.000,85.550
5.508,0.8118,-0.0249,0.8118,0.0000,0.0249,0.180,0.002,12.040,0.000,85.550
5.571,0.8194,-0.0247,0.8194,0.0000,0.0247,0.180,0.003,12.040,0.000,85.550
5.612,0.8308,-0.0244,0.8308,0.0000,0.0244,0.180,0.003,12.060,0.000,86.660
5.670,0.8385,-0.0242,0.8385,0.0000,0.0242,0.180,0.002,12.040,0.000,85.550
5.713,0.8461,-0.0240,0.8461,0.0000,0.0240,0.180,0.002,12.060,0.000,86.660
5.763,0.8577,-0.0237,0.8577,0.0000,0.0237,0.180,-0.000,12.040,0.000,85.550
5.811,0.8655,-0.0235,0.8655,0.0000,0.0235,0.180,-0.002,12.040,0.000,85.550
5.871,0.8732,-0.0233,0.8732,0.0000,0.0233,0.180,-0.004,12.040,0.000,85.550
5.907,0.8849,-0.0229,0.8849,0.0000,0.0229,0.180,-0.004,12.060,0.000,86.660
5.969,0.8927,-0.0227,0.8927,0.0000,0.0227,0.180,-0.005,12.020,0.000,84.440
6.012,0.8999,-0.0225,0.8999,0.0000,0.0225,0.180,-0.005,12.040,0.000,85.550
6.060,0.9114,-0.0222,0.9114,0.0000,0.0222,0.180,-0.007,12.040,0.000,85.550
6.105,0.9191,-0.0219,0.9191,0.0000,0.0219,0.180,-0.009,12.060,0.000,86.660
6.164,0.9266,-0.0217,0.9266,0.0000,0.0217,0.180,-0.010,12.040,0.000,85.550
6.203,0.9380,-0.0213,0.9380,0.0000,0.0213,0.180,-0.010,12.040,0.000,85.550
6.267,0.9458,-0.0211,0.9458,0.0000,0.0211,0.180,-0.011,12.040,0.000,85.550
6.312,0.9533,-0.0209,0.9533,0.0000,0.0209,0.180,-0.011,12.040,0.000,85.550
6.358,0.9648,-0.0205,0.9648,0.0000,0.0205,0.180,-0.012,12.020,0.000,84.440
6.415,0.9726,-0.0203,0.9726,0.0000,0.0203,0.180,-0.011,12.040,0.000,85.550
6.464,0.9803,-0.0200,0.9803,0.0000,0.0200,0.180,-0.010,12.020,0.000,84.440
6.506,0.9919,-0.0197,0.9919,0.0000,0.0197,0.180,-0.011,12.040,0.000,85.550
6.566,0.9997,-0.0194,0.9997,0.0000,0.0194,0.180,-0.011,12.040,0.000,85.550
6.612,1.0073,-0.0192,1.0073,0.0000,0.0192,0.180,-0.011,12.060,0.000,86.660
6.655,1.0189,-0.0188,1.0189,0.0000,0.0188,0.180,-0.009,12.080,0.000,87.770
6.712,1.0261,-0.0186,1.0261,0.0000,0.0186,0.180,-0.007,12.040,0.000,85.550
6.757,1.0375,-0.0183,1.0375,0.0000,0.0183,0.180,-0.005,12.060,0.000,86.660
6.808,1.0452,-0.0181,1.0452,0.0000,0.0181,0.180,-0.005,12.040,0.000,85.550
6.867,1.0529,-0.0179,1.0529,0.0000,0.0179,0.180,-0.006,12.040,0.000,85.550
6.909,1.0645,-0.0176,1.0645,0.0000,0.0176,0.180,-0.007,12.040,0.000,85.550
6.969,1.0722,-0.0173,1.0722,0.0000,0.0173,0.180,-0.009,12.040,0.000,85.550
7.038,1.0800,-0.0171,1.0800,0.0000,0.0171,0.180,-0.009,12.040,0.000,85.550
7.071,1.0913,-0.0168,1.0913,0.0000,0.0168,0.180,-0.011,12.040,0.000,85.550
7.120,1.0990,-0.0165,1.0990,0.0000,0.0165,0.180,-0.011,12.040,0.000,85.550
7.162,1.1068,-0.0163,1.1068,0.0000,0.0163,0.180,-0.012,12.040,0.000,85.550
7.208,1.1183,-0.0159,1.1183,0.0000,0.0159,0.180,-0.012,12.040,0.000,85.550
7.267,1.1259,-0.0157,1.1259,0.0000,0.0157,0.180,-0.012,12.040,0.000,85.550
7.321,1.1335,-0.0155,1.1335,0.0000,0.0155,0.180,-0.012,12.040,0.000,85.550
7.358,1.1449,-0.0151,1.1449,0.0000,0.0151,0.180,-0.010,12.040,0.000,85.550
7.404,1.1526,-0.0149,1.1526,0.0000,0.0149,0.179,-0.008,12.040,0.000,85.550
7.464,1.1602,-0.0147,1.1602,0.0000,0.0147,0.177,-0.006,12.020,0.000,84.440
7.509,1.1717,-0.0144,1.1717,0.0000,0.0144,0.174,-0.006,12.020,0.000,84.440
7.566,1.1791,-0.0142,1.1791,0.0000,0.0142,0.171,-0.005,12.040,0.000,85.550
7.614,1.1864,-0.0140,1.1864,0.0000,0.0140,0.171,-0.005,12.060,0.000,86.660
7.657,1.1974,-0.0137,1.1974,0.0000,0.0137,0.169,-0.004,12.040,0.000,85.550
7.715,1.2047,-0.0135,1.2047,0.0000,0.0135,0.166,-0.003,12.040,0.000,85.550
7.761,1.2153,-0.0132,1.2153,0.0000,0.0132,0.164,-0.002,12.040,0.000,85.550
7.819,1.2223,-0.0131,1.2223,0.0000,0.0131,0.160,-0.001,12.040,0.000,85.550
7.868,1.2291,-0.0129,1.2291,0.0000,0.0129,0.156,-0.001,12.040,0.000,85.550
7.909,1.2389,-0.0127,1.2389,0.0000,0.0127,0.153,-0.000,12.040,0.000,85.550
7.957,1.2455,-0.0125,1.2455,0.0000,0.0125,0.153,-0.000,12.060,0.000,86.660
8.016,1.2519,-0.0123,1.2519,0.0000,0.0123,0.151,0.001,12.040,0.000,85.550
8.055,1.2616,-0.0121,1.2616,0.0000,0.0121,0.149,-0.000,12.040,0.000,85.550
8.106,1.2680,-0.0119,1.2680,0.0000,0.0119,0.145,-0.001,12.040,0.000,85.550
8.164,1.2741,-0.0118,1.2741,0.0000,0.0118,0.143,-0.003,12.020,0.000,84.440
8.206,1.2833,-0.0115,1.2833,0.0000,0.0115,0.140,-0.003,12.040,0.000,85.550
8.267,1.2893,-0.0114,1.2893,0.0000,0.0114,0.138,-0.004,12.040,0.000,85.550
8.312,1.2954,-0.0112,1.2954,0.0000,0.0112,0.138,-0.004,12.040,0.000,85.550
8.362,1.3043,-0.0110,1.3043,0.0000,0.0110,0.134,-0.005,12.040,0.000,85.550
8.417,1.3102,-0.0108,1.3102,0.0000,0.0108,0.134,-0.005,12.040,0.000,85.550
8.465,1.3158,-0.0107,1.3158,0.0000,0.0107,0.130,-0.006,12.060,0.000,86.660
8.507,1.3241,-0.0104,1.3241,0.0000,0.0104,0.128,-0.008,12.040,0.000,85.550
8.567,1.3297,-0.0103,1.3297,0.0000,0.0103,0.126,-0.008,12.040,0.000,85.550
8.615,1.3352,-0.0101,1.3352,0.0000,0.0101,0.126,-0.008,12.040,0.000,85.550
8.658,1.3431,-0.0099,1.3431,0.0000,0.0099,0.124,-0.009,12.040,0.000,85.550
8.704,1.3481,-0.0098,1.3481,0.0000,0.0098,0.121,-0.009,12.040,0.000,85.550
8.764,1.3532,-0.0096,1.3532,0.0000,0.0096,0.119,-0.009,12.060,0.000,86.660
8.807,1.3609,-0.0094,1.3609,0.0000,0.0094,0.117,-0.009,12.040,0.000,85.550
8.867,1.3660,-0.0093,1.3660,0.0000,0.0093,0.115,-0.009,12.040,0.000,85.550
8.911,1.3709,-0.0091,1.3709,0.0000,0.0091,0.114,-0.008,12.020,0.000,84.440
8.958,1.3780,-0.0090,1.3780,0.0000,0.0090,0.114,-0.008,12.040,0.000,85.550
9.018,1.3828,-0.0088,1.3828,0.0000,0.0088,0.112,-0.008,12.060,0.000,86.660
9.063,1.3898,-0.0086,1.3898,0.0000,0.0086,0.108,-0.008,12.040,0.000,85.550
9.107,1.3945,-0.0085,1.3945,0.0000,0.0085,0.107,-0.007,12.040,0.000,85.550
9.166,1.3993,-0.0084,1.3993,0.0000,0.0084,0.105,-0.006,12.040,0.000,85.550
9.210,1.4039,-0.0083,1.4039,0.0000,0.0083,0.104,-0.006,12.040,0.000,85.550
9.258,1.4103,-0.0081,1.4103,0.0000,0.0081,0.104,-0.006,12.060,0.000,86.660
9.303,1.4146,-0.0080,1.4146,0.0000,0.0080,0.101,-0.005,12.060,0.000,86.660
9.365,1.4189,-0.0079,1.4189,0.0000,0.0079,0.099,-0.004,12.040,0.000,85.550
9.407,1.4253,-0.0077,1.4253,0.0000,0.0077,0.097,-0.004,12.060,0.000,86.660
9.468,1.4296,-0.0076,1.4296,0.0000,0.0076,0.096,-0.004,12.060,0.000,86.660
9.510,1.4336,-0.0075,1.4336,0.0000,0.0075,0.095,-0.002,12.060,0.000,86.660
9.600,1.4394,-0.0074,1.4394,0.0000,0.0074,0.095,-0.002,12.060,0.000,86.660
9.605,1.4432,-0.0073,1.4432,0.0000,0.0073,0.092,-0.003,12.060,0.000,86.660
9.675,1.4470,-0.0072,1.4470,0.0000,0.0072,0.092,-0.003,12.080,0.000,87.770
9.705,1.4527,-0.0070,1.4527,0.0000,0.0070,0.089,-0.002,12.060,0.000,86.660
9.766,1.4566,-0.0069,1.4566,0.0000,0.0069,0.088,-0.003,12.060,0.000,86.660
9.810,1.4604,-0.0068,1.4604,0.0000,0.0068,0.087,-0.002,12.060,0.000,86.660
9.857,1.4658,-0.0067,1.4658,0.0000,0.0067,0.087,-0.002,12.060,0.000,86.660
9.913,1.4693,-0.0066,1.4693,0.0000,0.0066,0.085,-0.005,12.080,0.000,87.770
9.960,1.4745,-0.0065,1.4745,0.0000,0.0065,0.084,-0.005,12.060,0.000,86.660
10.008,1.4779,-0.0064,1.4779,0.0000,0.0064,0.082,-0.005,12.060,0.000,86.660
10.082,1.4813,-0.0063,1.4813,0.0000,0.0063,0.082,-0.005,12.060,0.000,86.660
10.110,1.4865,-0.0062,1.4865,0.0000,0.0062,0.079,-0.006,12.060,0.000,86.660
10.160,1.4900,-0.0061,1.4900,0.0000,0.0061,0.079,-0.006,12.080,0.000,87.770
10.213,1.4934,-0.0060,1.4934,0.0000,0.0060,0.078,-0.007,12.060,0.000,86.660
10.261,1.4983,-0.0059,1.4983,0.0000,0.0059,0.077,-0.009,12.080,0.000,87.770
10.304,1.5014,-0.0058,1.5014,0.0000,0.0058,0.075,-0.010,12.060,0.000,86.660
10.371,1.5044,-0.0057,1.5044,0.0000,0.0057,0.074,-0.011,12.060,0.000,86.660
10.410,1.5089,-0.0056,1.5089,0.0000,0.0056,0.072,-0.012,12.060,0.000,86.660
10.456,1.5119,-0.0055,1.5119,0.0000,0.0055,0.072,-0.012,12.080,0.000,87.770
10.515,1.5148,-0.0054,1.5148,0.0000,0.0054,0.071,-0.012,12.060,0.000,86.660
10.557,1.5194,-0.0053,1.5194,0.0000,0.0053,0.071,-0.013,12.060,0.000,86.660
10.613,1.5223,-0.0052,1.5223,0.0000,0.0052,0.069,-0.012,12.080,0.000,87.770
10.677,1.5253,-0.0052,1.5253,0.0000,0.0052,0.068,-0.010,12.080,0.000,87.770
10.706,1.5297,-0.0050,1.5297,0.0000,0.0050,0.066,-0.009,12.080,0.000,87.770
10.769,1.5325,-0.0050,1.5325,0.0000,0.0050,0.065,-0.009,12.060,0.000,86.660
10.815,1.5349,-0.0049,1.5349,0.0000,0.0049,0.065,-0.009,12.080,0.000,87.770
10.857,1.5388,-0.0048,1.5388,0.0000,0.0048,0.065,-0.008,12.080,0.000,87.770
10.904,1.5412,-0.0048,1.5412,0.0000,0.0048,0.063,-0.009,12.080,0.000,87.770
10.965,1.5438,-0.0047,1.5438,0.0000,0.0047,0.062,-0.009,12.080,0.000,87.770
11.009,1.5476,-0.0046,1.5476,0.0000,0.0046,0.061,-0.009,12.060,0.000,86.660
11.067,1.5500,-0.0045,1.5500,0.0000,0.0045,0.060,-0.008,12.080,0.000,87.770
11.112,1.5526,-0.0045,1.5526,0.0000,0.0045,0.060,-0.008,12.060,0.000,86.660
11.155,1.5564,-0.0044,1.5564,0.0000,0.0044,0.059,-0.008,12.080,0.000,87.770
11.221,1.5589,-0.0043,1.5589,0.0000,0.0043,0.058,-0.010,12.090,0.000,88.330
11.262,1.5624,-0.0042,1.5624,0.0000,0.0042,0.057,-0.010,12.080,0.000,87.770
11.305,1.5645,-0.0042,1.5645,0.0000,0.0042,0.056,-0.008,12.080,0.000,87.770
11.366,1.5666,-0.0041,1.5666,0.0000,0.0041,0.055,-0.008,12.080,0.000,87.770
11.413,1.5687,-0.0041,1.5687,0.0000,0.0041,0.055,-0.008,12.080,0.000,87.770
11.456,1.5720,-0.0040,1.5720,0.0000,0.0040,0.054,-0.010,12.080,0.000,87.770
11.516,1.5741,-0.0039,1.5741,0.0000,0.0039,0.053,-0.009,12.090,0.000,88.330
11.564,1.5762,-0.0039,1.5762,0.0000,0.0039,0.052,-0.007,12.080,0.000,87.770
11.609,1.5795,-0.0038,1.5795,0.0000,0.0038,0.051,-0.008,12.080,0.000,87.770
11.666,1.5816,-0.0037,1.5816,0.0000,0.0037,0.051,-0.009,12.080,0.000,87.770
11.710,1.5838,-0.0037,1.5838,0.0000,0.0037,0.050,-0.009,12.080,0.000,87.770
11.755,1.5871,-0.0036,1.5871,0.0000,0.0036,0.050,-0.009,12.080,0.000,87.770
11.815,1.5892,-0.0036,1.5892,0.0000,0.0036,0.050,-0.009,12.080,0.000,87.770
11.865,1.5925,-0.0035,1.5925,0.0000,0.0035,0.050,-0.008,12.080,0.000,87.770
11.906,1.5946,-0.0034,1.5946,0.0000,0.0034,0.050,-0.009,12.080,0.000,87.770
11.964,1.5967,-0.0034,1.5967,0.0000,0.0034,0.050,-0.009,12.090,0.000,88.330
12.015,1.5989,-0.0033,1.5989,0.0000,0.0033,0.050,-0.009,12.080,0.000,87.770
12.053,1.6021,-0.0032,1.6021,0.0000,0.0032,0.050,-0.008,12.080,0.000,87.770
12.114,1.6043,-0.0032,1.6043,0.0000,0.0032,0.050,-0.007,12.060,0.000,86.660
12.157,1.6075,-0.0031,1.6075,0.0000,0.0031,0.050,-0.007,12.090,0.000,88.330
12.203,1.6097,-0.0031,1.6097,0.0000,0.0031,0.050,-0.009,12.080,0.000,87.770
12.267,1.6119,-0.0030,1.6119,0.0000,0.0030,0.050,-0.007,12.080,0.000,87.770
12.309,1.6151,-0.0029,1.6151,0.0000,0.0029,0.050,-0.007,12.090,0.000,88.330
12.356,1.6172,-0.0029,1.6172,0.0000,0.0029,0.050,-0.007,12.080,0.000,87.770
12.411,1.6193,-0.0028,1.6193,0.0000,0.0028,0.050,-0.008,12.080,0.000,87.770
12.460,1.6226,-0.0028,1.6226,0.0000,0.0028,0.050,-0.008,12.080,0.000,87.770
12.510,1.6248,-0.0027,1.6248,0.0000,0.0027,0.050,-0.008,12.080,0.000,87.770
12.566,1.6269,-0.0027,1.6269,0.0000,0.0027,0.050,-0.006,12.080,0.000,87.770
12.606,1.6301,-0.0026,1.6301,0.0000,0.0026,0.050,-0.006,12.090,0.000,88.330
12.655,1.6322,-0.0025,1.6322,0.0000,0.0025,0.050,-0.006,12.080,0.000,87.770
12.714,1.6343,-0.0025,1.6343,0.0000,0.0025,0.050,-0.007,12.090,0.000,88.330
12.754,1.6375,-0.0024,1.6375,0.0000,0.0024,0.050,-0.008,12.090,0.000,88.330
12.815,1.6397,-0.0024,1.6397,0.0000,0.0024,0.050,-0.009,12.080,0.000,87.770
12.864,1.6419,-0.0023,1.6419,0.0000,0.0023,0.050,-0.007,12.080,0.000,87.770
12.905,1.6450,-0.0022,1.6450,0.0000,0.0022,0.050,-0.007,12.080,0.000,87.770
12.987,1.6471,-0.0022,1.6471,0.0000,0.0022,0.050,-0.009,12.080,0.000,87.770
13.013,1.6493,-0.0021,1.6493,0.0000,0.0021,0.050,-0.009,12.090,0.000,88.330
13.056,1.6524,-0.0021,1.6524,0.0000,0.0021,0.050,-0.009,12.060,0.000,86.660
13.111,1.6544,-0.0020,1.6544,0.0000,0.0020,0.050,-0.007,12.060,0.000,86.660
