t,x,y,ref_x,ref_y,err,v,w,voltage,current,percentage
0.117,0.0000,-0.0000,0.0000,0.0000,0.0000,0.180,-0.003,12.040,0.000,85.550
0.118,0.0000,-0.0000,0.0000,0.0000,0.0000,0.180,-0.003,12.040,0.000,85.550
0.134,0.0000,-0.0000,0.0000,0.0000,0.0000,0.180,-0.002,12.040,0.000,85.550
0.223,0.0000,-0.0000,0.0000,0.0000,0.0000,0.180,-0.002,11.800,0.000,72.220
0.258,0.0032,-0.0000,0.0032,0.0000,0.0000,0.180,-0.000,11.820,0.000,73.330
0.303,0.0098,-0.0001,0.0098,0.0000,0.0001,0.180,0.016,11.850,0.000,75.000
0.348,0.0172,-0.0002,0.0172,0.0000,0.0002,0.180,0.035,11.870,0.000,76.110
0.393,0.0289,-0.0004,0.0289,0.0000,0.0004,0.180,0.037,11.870,0.000,76.110
0.437,0.0366,-0.0006,0.0366,0.0000,0.0006,0.180,0.037,11.870,0.000,76.110
0.500,0.0443,-0.0007,0.0443,0.0000,0.0007,0.180,0.037,11.890,0.000,77.220
0.541,0.0558,-0.0009,0.0558,0.0000,0.0009,0.180,0.035,11.870,0.000,76.110
0.598,0.0634,-0.0010,0.0634,0.0000,0.0010,0.180,0.036,11.890,0.000,77.220
0.643,0.0712,-0.0012,0.0712,0.0000,0.0012,0.180,0.035,11.870,0.000,76.110
0.694,0.0827,-0.0013,0.0827,0.0000,0.0013,0.180,0.031,11.870,0.000,76.110
0.737,0.0904,-0.0015,0.0904,0.0000,0.0015,0.180,0.031,11.890,0.000,77.220
0.797,0.0981,-0.0016,0.0981,0.0000,0.0016,0.180,0.030,11.870,0.000,76.110
0.841,0.1096,-0.0017,0.1096,0.0000,0.0017,0.180,0.028,11.840,0.000,74.440
0.909,0.1170,-0.0018,0.1170,0.0000,0.0018,0.180,0.024,11.890,0.000,77.220
0.959,0.1248,-0.0019,0.1248,0.0000,0.0019,0.180,0.024,11.890,0.000,77.220
0.994,0.1361,-0.0020,0.1361,0.0000,0.0020,0.180,0.019,11.850,0.000,75.000
1.039,0.1436,-0.0020,0.1436,0.0000,0.0020,0.180,0.019,11.870,0.000,76.110
1.100,0.1514,-0.0021,0.1514,0.0000,0.0021,0.180,0.019,11.890,0.000,77.220
1.141,0.1630,-0.0022,0.1630,0.0000,0.0022,0.180,0.016,11.850,0.000,75.000
1.200,0.1706,-0.0022,0.1706,0.0000,0.0022,0.180,0.014,11.870,0.000,76.110
1.241,0.1785,-0.0022,0.1785,0.0000,0.0022,0.180,0.014,11.890,0.000,77.220
1.309,0.1903,-0.0023,0.1903,0.0000,0.0023,0.180,0.014,11.850,0.000,75.000
1.335,0.1979,-0.0024,0.1979,0.0000,0.0024,0.180,0.014,11.850,0.000,75.000
1.400,0.2059,-0.0024,0.2059,0.0000,0.0024,0.180,0.014,11.870,0.000,76.110
1.438,0.2175,-0.0025,0.2175,0.0000,0.0025,0.180,0.015,11.890,0.000,77.220
1.500,0.2251,-0.0025,0.2251,0.0000,0.0025,0.180,0.017,11.840,0.000,74.440
1.544,0.2328,-0.0026,0.2328,0.0000,0.0026,0.180,0.017,11.870,0.000,76.110
1.590,0.2442,-0.0027,0.2442,0.0000,0.0027,0.180,0.021,11.890,0.000,77.220
1.634,0.2520,-0.0027,0.2520,0.0000,0.0027,0.180,0.021,11.840,0.000,74.440
1.699,0.2594,-0.0028,0.2594,0.0000,0.0028,0.180,0.021,11.850,0.000,75.000
1.736,0.2711,-0.0029,0.2711,0.0000,0.0029,0.180,0.022,11.910,0.000,78.330
1.799,0.2790,-0.0030,0.2790,0.0000,0.0030,0.180,0.022,11.840,0.000,74.440
1.841,0.2863,-0.0031,0.2863,0.0000,0.0031,0.180,0.022,11.850,0.000,75.000
1.891,0.2980,-0.0032,0.2980,0.0000,0.0032,0.180,0.021,11.890,0.000,77.220
1.939,0.3058,-0.0032,0.3058,0.0000,0.0032,0.180,0.021,11.850,0.000,75.000
1.994,0.3133,-0.0033,0.3133,0.0000,0.0033,0.180,0.019,11.850,0.000,75.000
2.035,0.3247,-0.0033,0.3247,0.0000,0.0033,0.180,0.017,11.890,0.000,77.220
2.104,0.3325,-0.0034,0.3325,0.0000,0.0034,0.180,0.017,11.850,0.000,75.000
2.141,0.3399,-0.0034,0.3399,0.0000,0.0034,0.180,0.016,11.850,0.000,75.000
2.191,0.3514,-0.0035,0.3514,0.0000,0.0035,0.180,0.013,11.870,0.000,76.110
2.237,0.3591,-0.0035,0.3591,0.0000,0.0035,0.180,0.013,11.870,0.000,76.110
2.295,0.3668,-0.0035,0.3668,0.0000,0.0035,0.180,0.010,11.850,0.000,75.000
2.334,0.3784,-0.0036,0.3784,0.0000,0.0036,0.180,0.009,11.870,0.000,76.110
2.396,0.3863,-0.0036,0.3863,0.0000,0.0036,0.180,0.009,11.890,0.000,77.220
2.439,0.3940,-0.0036,0.3940,0.0000,0.0036,0.180,0.009,11.850,0.000,75.000
2.489,0.4058,-0.0036,0.4058,0.0000,0.0036,0.180,0.009,11.850,0.000,75.000
2.535,0.4136,-0.0036,0.4136,0.0000,0.0036,0.180,0.010,11.890,0.000,77.220
2.596,0.4213,-0.0036,0.4213,0.0000,0.0036,0.180,0.012,11.890,0.000,77.220
2.632,0.4329,-0.0037,0.4329,0.0000,0.0037,0.180,0.014,11.870,0.000,76.110
2.697,0.4406,-0.0037,0.4406,0.0000,0.0037,0.180,0.014,11.890,0.000,77.220
2.738,0.4482,-0.0037,0.4482,0.0000,0.0037,0.180,0.014,11.870,0.000,76.110
2.800,0.4597,-0.0038,0.4597,0.0000,0.0038,0.180,0.014,11.870,0.000,76.110
2.834,0.4673,-0.0038,0.4673,0.0000,0.0038,0.180,0.014,11.890,0.000,77.220
2.894,0.4751,-0.0039,0.4751,0.0000,0.0039,0.180,0.014,11.890,0.000,77.220
2.933,0.4867,-0.0039,0.4867,0.0000,0.0039,0.180,0.014,11.870,0.000,76.110
2.995,0.4942,-0.0039,0.4942,0.0000,0.0039,0.180,0.014,11.870,0.000,76.110
3.037,0.5020,-0.0040,0.5020,0.0000,0.0040,0.180,0.014,11.870,0.000,76.110
3.101,0.5136,-0.0040,0.5136,0.0000,0.0040,0.180,0.013,11.850,0.000,75.000
3.135,0.5211,-0.0040,0.5211,0.0000,0.0040,0.180,0.012,11.850,0.000,75.000
3.192,0.5288,-0.0040,0.5288,0.0000,0.0040,0.180,0.010,11.870,0.000,76.110
3.237,0.5402,-0.0040,0.5402,0.0000,0.0040,0.180,0.010,11.850,0.000,75.000
3.297,0.5478,-0.0040,0.5478,0.0000,0.0040,0.180,0.009,11.850,0.000,75.000
3.338,0.5588,-0.0040,0.5588,0.0000,0.0040,0.180,0.007,11.850,0.000,75.000
3.401,0.5665,-0.0040,0.5665,0.0000,0.0040,0.180,0.006,11.850,0.000,75.000
3.441,0.5742,-0.0040,0.5742,0.0000,0.0040,0.180,0.006,11.870,0.000,76.110
3.487,0.5858,-0.0040,0.5858,0.0000,0.0040,0.180,0.004,11.850,0.000,75.000
3.535,0.5936,-0.0040,0.5936,0.0000,0.0040,0.180,0.003,11.850,0.000,75.000
3.597,0.6015,-0.0040,0.6015,0.0000,0.0040,0.180,0.003,11.850,0.000,75.000
3.636,0.6132,-0.0040,0.6132,0.0000,0.0040,0.180,0.005,11.870,0.000,76.110
3.697,0.6209,-0.0040,0.6209,0.0000,0.0040,0.180,0.005,11.850,0.000,75.000
3.740,0.6283,-0.0040,0.6283,0.0000,0.0040,0.180,0.006,11.870,0.000,76.110
3.789,0.6399,-0.0040,0.6399,0.0000,0.0040,0.180,0.010,11.850,0.000,75.000
3.837,0.6476,-0.0040,0.6476,0.0000,0.0040,0.180,0.010,11.850,0.000,75.000
3.894,0.6552,-0.0040,0.6552,0.0000,0.0040,0.180,0.012,11.870,0.000,76.110
3.937,0.6667,-0.0040,0.6667,0.0000,0.0040,0.180,0.012,11.850,0.000,75.000
4.002,0.6743,-0.0040,0.6743,0.0000,0.0040,0.180,0.013,11.840,0.000,74.440
4.064,0.6820,-0.0041,0.6820,0.0000,0.0041,0.180,0.012,11.870,0.000,76.110
4.100,0.6935,-0.0041,0.6935,0.0000,0.0041,0.180,0.012,11.850,0.000,75.000
4.135,0.7012,-0.0041,0.7012,0.0000,0.0041,0.180,0.012,11.850,0.000,75.000
4.192,0.7090,-0.0041,0.7090,0.0000,0.0041,0.180,0.011,11.840,0.000,74.440
4.237,0.7205,-0.0041,0.7205,0.0000,0.0041,0.180,0.011,11.870,0.000,76.110
4.300,0.7281,-0.0041,0.7281,0.0000,0.0041,0.180,0.011,11.840,0.000,74.440
4.339,0.7357,-0.0041,0.7357,0.0000,0.0041,0.180,0.009,11.850,0.000,75.000
4.389,0.7471,-0.0041,0.7471,0.0000,0.0041,0.180,0.007,11.870,0.000,76.110
4.457,0.7547,-0.0041,0.7547,0.0000,0.0041,0.180,0.007,11.870,0.000,76.110
4.495,0.7662,-0.0041,0.7662,0.0000,0.0041,0.180,0.005,11.850,0.000,75.000
4.538,0.7738,-0.0041,0.7738,0.0000,0.0041,0.180,0.005,11.850,0.000,75.000
4.601,0.7816,-0.0041,0.7816,0.0000,0.0041,0.180,0.005,11.870,0.000,76.110
4.640,0.7932,-0.0040,0.7932,0.0000,0.0040,0.180,0.003,11.870,0.000,76.110
4.701,0.8009,-0.0040,0.8009,0.0000,0.0040,0.180,0.002,11.840,0.000,74.440
4.750,0.8088,-0.0040,0.8088,0.0000,0.0040,0.180,0.004,11.870,0.000,76.110
4.793,0.8206,-0.0040,0.8206,0.0000,0.0040,0.180,0.005,11.850,0.000,75.000
4.837,0.8283,-0.0039,0.8283,0.0000,0.0039,0.180,0.005,11.850,0.000,75.000
4.900,0.8360,-0.0039,0.8360,0.0000,0.0039,0.180,0.006,11.870,0.000,76.110
4.941,0.8477,-0.0039,0.8477,0.0000,0.0039,0.180,0.007,11.890,0.000,77.220
5.003,0.8553,-0.0039,0.8553,0.0000,0.0039,0.180,0.010,11.850,0.000,75.000
5.047,0.8629,-0.0039,0.8629,0.0000,0.0039,0.180,0.012,11.850,0.000,75.000
5.097,0.8744,-0.0040,0.8744,0.0000,0.0040,0.180,0.012,11.870,0.000,76.110
5.135,0.8819,-0.0040,0.8819,0.0000,0.0040,0.180,0.012,11.850,0.000,75.000
5.196,0.8892,-0.0040,0.8892,0.0000,0.0040,0.180,0.011,11.850,0.000,75.000
5.245,0.9008,-0.0040,0.9008,0.0000,0.0040,0.180,0.011,11.870,0.000,76.110
5.299,0.9086,-0.0040,0.9086,0.0000,0.0040,0.180,0.011,11.850,0.000,75.000
5.340,0.9162,-0.0040,0.9162,0.0000,0.0040,0.180,0.010,11.850,0.000,75.000
5.401,0.9273,-0.0040,0.9273,0.0000,0.0040,0.180,0.010,11.870,0.000,76.110
5.434,0.9350,-0.0040,0.9350,0.0000,0.0040,0.180,0.008,11.850,0.000,75.000
5.502,0.9425,-0.0040,0.9425,0.0000,0.0040,0.180,0.008,11.840,0.000,74.440
5.539,0.9540,-0.0039,0.9540,0.0000,0.0039,0.180,0.007,11.840,0.000,74.440
5.601,0.9617,-0.0039,0.9617,0.0000,0.0039,0.180,0.007,11.850,0.000,75.000
5.640,0.9731,-0.0039,0.9731,0.0000,0.0039,0.180,0.006,11.850,0.000,75.000
5.701,0.9806,-0.0039,0.9806,0.0000,0.0039,0.180,0.005,11.850,0.000,75.000
5.750,0.9885,-0.0038,0.9885,0.0000,0.0038,0.180,0.002,11.870,0.000,76.110
5.795,1.0001,-0.0038,1.0001,0.0000,0.0038,0.180,0.000,11.840,0.000,74.440
5.838,1.0077,-0.0038,1.0077,0.0000,0.0038,0.180,0.000,11.840,0.000,74.440
5.897,1.0157,-0.0037,1.0157,0.0000,0.0037,0.180,0.001,11.870,0.000,76.110
5.941,1.0274,-0.0037,1.0274,0.0000,0.0037,0.180,0.001,11.870,0.000,76.110
6.002,1.0350,-0.0036,1.0350,0.0000,0.0036,0.180,-0.001,11.840,0.000,74.440
6.045,1.0429,-0.0036,1.0429,0.0000,0.0036,0.180,0.001,11.870,0.000,76.110
6.093,1.0545,-0.0036,1.0545,0.0000,0.0036,0.180,0.006,11.850,0.000,75.000
6.135,1.0621,-0.0035,1.0621,0.0000,0.0035,0.180,0.006,11.820,0.000,73.330
6.197,1.0693,-0.0035,1.0693,0.0000,0.0035,0.180,0.006,11.850,0.000,75.000
6.239,1.0808,-0.0035,1.0808,0.0000,0.0035,0.180,0.008,11.870,0.000,76.110
6.298,1.0885,-0.0035,1.0885,0.0000,0.0035,0.180,0.011,11.850,0.000,75.000
6.339,1.0962,-0.0035,1.0962,0.0000,0.0035,0.180,0.011,11.850,0.000,75.000
6.401,1.1073,-0.0035,1.1073,0.0000,0.0035,0.180,0.011,11.850,0.000,75.000
6.437,1.1151,-0.0035,1.1151,0.0000,0.0035,0.180,0.012,11.840,0.000,74.440
6.503,1.1226,-0.0035,1.1226,0.0000,0.0035,0.180,0.011,11.850,0.000,75.000
6.533,1.1343,-0.0035,1.1343,0.0000,0.0035,0.180,0.010,11.870,0.000,76.110
6.617,1.1419,-0.0035,1.1419,0.0000,0.0035,0.180,0.010,11.840,0.000,74.440
6.640,1.1534,-0.0034,1.1534,0.0000,0.0034,0.180,0.009,11.840,0.000,74.440
6.702,1.1609,-0.0034,1.1609,0.0000,0.0034,0.179,0.007,11.850,0.000,75.000
6.748,1.1686,-0.0034,1.1686,0.0000,0.0034,0.174,0.005,11.870,0.000,76.110
6.797,1.1798,-0.0034,1.1798,0.0000,0.0034,0.174,0.005,11.820,0.000,73.330
6.835,1.1868,-0.0033,1.1868,0.0000,0.0033,0.169,0.004,11.850,0.000,75.000
6.901,1.1943,-0.0033,1.1943,0.0000,0.0033,0.169,0.004,11.850,0.000,75.000
6.939,1.2052,-0.0032,1.2052,0.0000,0.0032,0.167,0.002,11.840,0.000,74.440
7.003,1.2118,-0.0032,1.2118,0.0000,0.0032,0.163,0.001,11.850,0.000,75.000
7.048,1.2188,-0.0032,1.2188,0.0000,0.0032,0.159,0.002,11.820,0.000,73.330
7.093,1.2291,-0.0031,1.2291,0.0000,0.0031,0.156,0.002,11.850,0.000,75.000
7.135,1.2361,-0.0031,1.2361,0.0000,0.0031,0.154,0.004,11.850,0.000,75.000
7.200,1.2429,-0.0030,1.2429,0.0000,0.0030,0.154,0.004,11.820,0.000,73.330
7.237,1.2525,-0.0030,1.2525,0.0000,0.0030,0.152,0.005,11.840,0.000,74.440
7.312,1.2590,-0.0030,1.2590,0.0000,0.0030,0.147,0.008,11.840,0.000,74.440
7.344,1.2653,-0.0030,1.2653,0.0000,0.0030,0.147,0.008,11.840,0.000,74.440
7.397,1.2746,-0.0030,1.2746,0.0000,0.0030,0.145,0.010,11.820,0.000,73.330
7.434,1.2806,-0.0030,1.2806,0.0000,0.0030,0.141,0.013,11.820,0.000,73.330
7.496,1.2865,-0.0030,1.2865,0.0000,0.0030,0.139,0.014,11.850,0.000,75.000
7.535,1.2955,-0.0029,1.2955,0.0000,0.0029,0.136,0.014,11.820,0.000,73.330
7.598,1.3014,-0.0029,1.3014,0.0000,0.0029,0.136,0.014,11.840,0.000,74.440
7.643,1.3072,-0.0029,1.3072,0.0000,0.0029,0.135,0.014,11.820,0.000,73.330
7.691,1.3155,-0.0029,1.3155,0.0000,0.0029,0.130,0.014,11.850,0.000,75.000
7.736,1.3212,-0.0029,1.3212,0.0000,0.0029,0.129,0.013,11.850,0.000,75.000
7.795,1.3267,-0.0029,1.3267,0.0000,0.0029,0.127,0.012,11.870,0.000,76.110
7.840,1.3350,-0.0029,1.3350,0.0000,0.0029,0.127,0.012,11.850,0.000,75.000
7.901,1.3401,-0.0029,1.3401,0.0000,0.0029,0.124,0.010,11.850,0.000,75.000
7.940,1.3453,-0.0028,1.3453,0.0000,0.0028,0.123,0.009,11.840,0.000,74.440
7.993,1.3528,-0.0028,1.3528,0.0000,0.0028,0.119,0.008,11.870,0.000,76.110
8.038,1.3581,-0.0028,1.3581,0.0000,0.0028,0.119,0.008,11.840,0.000,74.440
8.094,1.3630,-0.0028,1.3630,0.0000,0.0028,0.116,0.006,11.870,0.000,76.110
8.137,1.3705,-0.0027,1.3705,0.0000,0.0027,0.116,0.006,11.850,0.000,75.000
8.197,1.3750,-0.0027,1.3750,0.0000,0.0027,0.114,0.006,11.870,0.000,76.110
8.246,1.3797,-0.0027,1.3797,0.0000,0.0027,0.113,0.005,11.850,0.000,75.000
8.303,1.3867,-0.0027,1.3867,0.0000,0.0027,0.111,0.004,11.850,0.000,75.000
8.346,1.3913,-0.0026,1.3913,0.0000,0.0026,0.108,0.002,11.850,0.000,75.000
8.391,1.3982,-0.0026,1.3982,0.0000,0.0026,0.106,0.002,11.870,0.000,76.110
8.434,1.4025,-0.0026,1.4025,0.0000,0.0026,0.104,0.002,11.890,0.000,77.220
8.504,1.4070,-0.0025,1.4070,0.0000,0.0025,0.104,0.002,11.850,0.000,75.000
8.541,1.4133,-0.0025,1.4133,0.0000,0.0025,0.103,-0.000,11.870,0.000,76.110
8.598,1.4178,-0.0024,1.4178,0.0000,0.0024,0.101,-0.001,11.870,0.000,76.110
8.649,1.4222,-0.0024,1.4222,0.0000,0.0024,0.098,-0.001,11.870,0.000,76.110
8.691,1.4286,-0.0024,1.4286,0.0000,0.0024,0.096,-0.001,11.890,0.000,77.220
8.735,1.4329,-0.0023,1.4329,0.0000,0.0023,0.095,-0.001,11.870,0.000,76.110
8.799,1.4369,-0.0023,1.4369,0.0000,0.0023,0.095,-0.001,11.890,0.000,77.220
8.841,1.4427,-0.0022,1.4427,0.0000,0.0022,0.094,-0.001,11.890,0.000,77.220
8.900,1.4466,-0.0022,1.4466,0.0000,0.0022,0.092,0.001,11.870,0.000,76.110
8.947,1.4504,-0.0022,1.4504,0.0000,0.0022,0.090,0.004,11.870,0.000,76.110
8.991,1.4562,-0.0022,1.4562,0.0000,0.0022,0.088,0.005,11.890,0.000,77.220
9.038,1.4599,-0.0021,1.4599,0.0000,0.0021,0.088,0.005,11.870,0.000,76.110
9.095,1.4636,-0.0021,1.4636,0.0000,0.0021,0.086,0.006,11.910,0.000,78.330
9.136,1.4690,-0.0021,1.4690,0.0000,0.0021,0.084,0.007,11.870,0.000,76.110
9.197,1.4724,-0.0021,1.4724,0.0000,0.0021,0.084,0.007,11.850,0.000,75.000
9.241,1.4757,-0.0021,1.4757,0.0000,0.0021,0.083,0.007,11.890,0.000,77.220
9.289,1.4809,-0.0020,1.4809,0.0000,0.0020,0.081,0.009,11.870,0.000,76.110
9.350,1.4841,-0.0020,1.4841,0.0000,0.0020,0.080,0.009,11.890,0.000,77.220
9.392,1.4892,-0.0020,1.4892,0.0000,0.0020,0.078,0.009,11.890,0.000,77.220
9.435,1.4926,-0.0020,1.4926,0.0000,0.0020,0.077,0.010,11.890,0.000,77.220
9.505,1.4960,-0.0020,1.4960,0.0000,0.0020,0.077,0.010,11.890,0.000,77.220
9.538,1.5005,-0.0020,1.5005,0.0000,0.0020,0.076,0.010,11.870,0.000,76.110
9.604,1.5034,-0.0019,1.5034,0.0000,0.0019,0.075,0.011,11.870,0.000,76.110
9.648,1.5065,-0.0019,1.5065,0.0000,0.0019,0.073,0.009,11.910,0.000,78.330
9.692,1.5110,-0.0019,1.5110,0.0000,0.0019,0.072,0.008,11.910,0.000,78.330
9.747,1.5139,-0.0019,1.5139,0.0000,0.0019,0.071,0.007,11.890,0.000,77.220
9.798,1.5169,-0.0019,1.5169,0.0000,0.0019,0.071,0.007,11.890,0.000,77.220
9.838,1.5215,-0.0018,1.5215,0.0000,0.0018,0.070,0.006,11.910,0.000,78.330
9.897,1.5245,-0.0018,1.5245,0.0000,0.0018,0.069,0.006,11.930,0.000,79.440
9.979,1.5272,-0.0018,1.5272,0.0000,0.0018,0.068,0.007,11.930,0.000,79.440
9.992,1.5312,-0.0018,1.5312,0.0000,0.0018,0.066,0.007,11.930,0.000,79.440
10.034,1.5338,-0.0018,1.5338,0.0000,0.0018,0.065,0.006,11.930,0.000,79.440
10.094,1.5363,-0.0018,1.5363,0.0000,0.0018,0.064,0.006,11.910,0.000,78.330
10.134,1.5400,-0.0017,1.5400,0.0000,0.0017,0.063,0.007,11.910,0.000,78.330
10.197,1.5424,-0.0017,1.5424,0.0000,0.0017,0.063,0.007,11.930,0.000,79.440
10.239,1.5450,-0.0017,1.5450,0.0000,0.0017,0.062,0.007,11.930,0.000,79.440
10.290,1.5489,-0.0017,1.5489,0.0000,0.0017,0.060,0.006,11.910,0.000,78.330
10.336,1.5514,-0.0017,1.5514,0.0000,0.0017,0.060,0.007,11.930,0.000,79.440
10.393,1.5538,-0.0016,1.5538,0.0000,0.0016,0.059,0.007,11.950,0.000,80.550
10.456,1.5576,-0.0016,1.5576,0.0000,0.0016,0.058,0.006,11.950,0.000,80.550
10.505,1.5599,-0.0016,1.5599,0.0000,0.0016,0.058,0.006,11.950,0.000,80.550
10.538,1.5631,-0.0016,1.5631,0.0000,0.0016,0.057,0.005,11.950,0.000,80.550
10.599,1.5651,-0.0016,1.5651,0.0000,0.0016,0.056,0.006,11.950,0.000,80.550
10.646,1.5672,-0.0016,1.5672,0.0000,0.0016,0.055,0.007,11.950,0.000,80.550
10.690,1.5704,-0.0015,1.5704,0.0000,0.0015,0.054,0.006,11.950,0.000,80.550
10.735,1.5726,-0.0015,1.5726,0.0000,0.0015,0.053,0.005,11.950,0.000,80.550
10.800,1.5747,-0.0015,1.5747,0.0000,0.0015,0.053,0.005,11.950,0.000,80.550
10.837,1.5777,-0.0015,1.5777,0.0000,0.0015,0.053,0.005,11.930,0.000,79.440
10.903,1.5798,-0.0015,1.5798,0.0000,0.0015,0.052,0.005,11.970,0.000,81.660
10.940,1.5820,-0.0015,1.5820,0.0000,0.0015,0.051,0.005,11.950,0.000,80.550
10.992,1.5853,-0.0014,1.5853,0.0000,0.0014,0.050,0.004,11.970,0.000,81.660
11.033,1.5874,-0.0014,1.5874,0.0000,0.0014,0.050,0.004,11.930,0.000,79.440
11.095,1.5894,-0.0014,1.5894,0.0000,0.0014,0.050,0.003,11.930,0.000,79.440
11.135,1.5925,-0.0014,1.5925,0.0000,0.0014,0.050,0.001,11.930,0.000,79.440
11.198,1.5948,-0.0014,1.5948,0.0000,0.0014,0.050,0.001,11.970,0.000,81.660
11.239,1.5970,-0.0013,1.5970,0.0000,0.0013,0.050,0.002,11.950,0.000,80.550
11.288,1.6002,-0.0013,1.6002,0.0000,0.0013,0.050,0.001,11.950,0.000,80.550
11.334,1.6023,-0.0013,1.6023,0.0000,0.0013,0.050,-0.000,11.950,0.000,80.550
11.398,1.6043,-0.0013,1.6043,0.0000,0.0013,0.050,-0.000,11.950,0.000,80.550
11.433,1.6076,-0.0012,1.6076,0.0000,0.0012,0.050,-0.001,11.950,0.000,80.550
11.495,1.6098,-0.0012,1.6098,0.0000,0.0012,0.050,-0.004,11.950,0.000,80.550
11.539,1.6120,-0.0012,1.6120,0.0000,0.0012,0.050,-0.004,11.970,0.000,81.660
11.600,1.6151,-0.0012,1.6151,0.0000,0.0012,0.050,-0.006,11.950,0.000,80.550
11.647,1.6172,-0.0011,1.6172,0.0000,0.0011,0.050,-0.006,11.930,0.000,79.440
11.693,1.6206,-0.0011,1.6206,0.0000,0.0011,0.050,-0.006,11.950,0.000,80.550
11.743,1.6228,-0.0011,1.6228,0.0000,0.0011,0.050,-0.006,11.950,0.000,80.550
11.800,1.6250,-0.0011,1.6250,0.0000,0.0011,0.050,-0.007,11.950,0.000,80.550
11.840,1.6282,-0.0010,1.6282,0.0000,0.0010,0.050,-0.008,11.950,0.000,80.550
11.900,1.6303,-0.0010,1.6303,0.0000,0.0010,0.050,-0.007,11.970,0.000,81.660
11.946,1.6325,-0.0010,1.6325,0.0000,0.0010,0.050,-0.006,11.950,0.000,80.550
11.990,1.6358,-0.0010,1.6358,0.0000,0.0010,0.050,-0.009,11.950,0.000,80.550
12.035,1.6381,-0.0009,1.6381,0.0000,0.0009,0.050,-0.009,11.950,0.000,80.550
12.099,1.6402,-0.0009,1.6402,0.0000,0.0009,0.050,-0.009,11.930,0.000,79.440
12.138,1.6433,-0.0009,1.6433,0.0000,0.0009,0.050,-0.009,11.930,0.000,79.440
12.201,1.6455,-0.0009,1.6455,0.0000,0.0009,0.050,-0.009,11.950,0.000,80.550
12.248,1.6477,-0.0008,1.6477,0.0000,0.0008,0.050,-0.011,11.950,0.000,80.550
12.290,1.6511,-0.0008,1.6511,0.0000,0.0008,0.050,-0.010,11.950,0.000,80.550
12.336,1.6532,-0.0008,1.6532,0.0000,0.0008,0.050,-0.007,11.950,0.000,80.550
12.397,1.6552,-0.0008,1.6552,0.0000,0.0008,0.050,-0.007,11.930,0.000,79.440
12.438,1.6585,-0.0007,1.6585,0.0000,0.0007,0.050,-0.005,11.930,0.000,79.440
12.505,1.6607,-0.0007,1.6607,0.0000,0.0007,0.050,-0.004,11.970,0.000,81.660
12.544,1.6629,-0.0007,1.6629,0.0000,0.0007,0.050,-0.005,11.950,0.000,80.550
12.590,1.6661,-0.0007,1.6661,0.0000,0.0007,0.050,-0.005,11.950,0.000,80.550
12.644,1.6682,-0.0006,1.6682,0.0000,0.0006,0.050,-0.005,11.950,0.000,80.550
12.696,1.6703,-0.0006,1.6703,0.0000,0.0006,0.050,-0.005,11.950,0.000,80.550
12.735,1.6736,-0.0006,1.6736,0.0000,0.0006,0.050,-0.006,11.950,0.000,80.550
12.797,1.6757,-0.0006,1.6757,0.0000,0.0006,0.050,-0.006,11.970,0.000,81.660
12.841,1.6780,-0.0006,1.6780,0.0000,0.0006,0.050,-0.005,11.950,0.000,80.550
12.911,1.6810,-0.0005,1.6810,0.0000,0.0005,0.050,-0.003,11.950,0.000,80.550
12.934,1.6831,-0.0005,1.6831,0.0000,0.0005,0.050,-0.004,11.950,0.000,80.550
13.016,1.6853,-0.0005,1.6853,0.0000,0.0005,0.050,-0.004,11.970,0.000,81.660
13.041,1.6886,-0.0005,1.6886,0.0000,0.0005,0.050,-0.004,11.970,0.000,81.660
13.097,1.6907,-0.0005,1.6907,0.0000,0.0005,0.050,-0.004,11.950,0.000,80.550
13.218,1.6928,-0.0004,1.6928,0.0000,0.0004,0.050,1.200,11.930,0.000,79.440
13.218,1.6959,-0.0004,1.6959,0.0000,0.0004,0.050,1.200,12.000,0.000,83.330
