t,x,y,ref_x,ref_y,err,v,w,voltage,current,percentage
0.118,-0.0000,0.0000,0.0000,0.0000,0.0000,0.180,-0.001,12.040,0.000,85.550
0.119,-0.0000,0.0000,0.0000,0.0000,0.0000,0.180,-0.001,12.040,0.000,85.550
0.139,-0.0001,-0.0000,0.0000,0.0000,0.0001,0.180,-0.001,12.060,0.000,86.660
0.193,0.0000,-0.0000,0.0000,0.0000,0.0000,0.180,-0.001,11.910,0.000,78.330
0.247,0.0000,-0.0000,0.0000,0.0000,0.0000,0.180,0.010,11.840,0.000,74.440
0.284,0.0064,-0.0001,0.0064,0.0000,0.0001,0.180,0.010,11.850,0.000,75.000
0.330,0.0134,-0.0002,0.0134,0.0000,0.0002,0.180,0.034,11.870,0.000,76.110
0.390,0.0209,-0.0003,0.0209,0.0000,0.0003,0.180,0.033,11.890,0.000,77.220
0.431,0.0326,-0.0005,0.0326,0.0000,0.0005,0.180,0.031,11.870,0.000,76.110
0.500,0.0403,-0.0006,0.0403,0.0000,0.0006,0.180,0.031,11.890,0.000,77.220
0.537,0.0519,-0.0008,0.0519,0.0000,0.0008,0.180,0.029,11.890,0.000,77.220
0.597,0.0599,-0.0009,0.0599,0.0000,0.0009,0.180,0.029,11.910,0.000,78.330
0.642,0.0676,-0.0010,0.0676,0.0000,0.0010,0.180,0.027,11.890,0.000,77.220
0.689,0.0793,-0.0011,0.0793,0.0000,0.0011,0.180,0.025,11.870,0.000,76.110
0.733,0.0871,-0.0012,0.0871,0.0000,0.0012,0.180,0.025,11.890,0.000,77.220
0.796,0.0949,-0.0013,0.0949,0.0000,0.0013,0.180,0.025,11.890,0.000,77.220
0.839,0.1063,-0.0014,0.1063,0.0000,0.0014,0.180,0.024,11.850,0.000,75.000
0.896,0.1139,-0.0015,0.1139,0.0000,0.0015,0.180,0.024,11.890,0.000,77.220
0.945,0.1217,-0.0016,0.1217,0.0000,0.0016,0.180,0.026,11.890,0.000,77.220
0.988,0.1331,-0.0017,0.1331,0.0000,0.0017,0.180,0.024,11.850,0.000,75.000
1.031,0.1406,-0.0018,0.1406,0.0000,0.0018,0.180,0.025,11.890,0.000,77.220
1.095,0.1485,-0.0019,0.1485,0.0000,0.0019,0.180,0.024,11.890,0.000,77.220
1.136,0.1601,-0.0020,0.1601,0.0000,0.0020,0.180,0.024,11.870,0.000,76.110
1.186,0.1676,-0.0021,0.1676,0.0000,0.0021,0.180,0.023,11.890,0.000,77.220
1.241,0.1754,-0.0022,0.1754,0.0000,0.0022,0.180,0.022,11.890,0.000,77.220
1.289,0.1870,-0.0023,0.1870,0.0000,0.0023,0.180,0.019,11.870,0.000,76.110
1.335,0.1943,-0.0023,0.1943,0.0000,0.0023,0.180,0.018,11.870,0.000,76.110
1.416,0.2021,-0.0024,0.2021,0.0000,0.0024,0.180,0.017,11.870,0.000,76.110
1.438,0.2135,-0.0025,0.2135,0.0000,0.0025,0.180,0.017,11.870,0.000,76.110
1.504,0.2209,-0.0025,0.2209,0.0000,0.0025,0.180,0.017,11.870,0.000,76.110
1.542,0.2286,-0.0026,0.2286,0.0000,0.0026,0.180,0.017,11.870,0.000,76.110
1.587,0.2402,-0.0026,0.2402,0.0000,0.0026,0.180,0.018,11.890,0.000,77.220
1.633,0.2478,-0.0027,0.2478,0.0000,0.0027,0.180,0.018,11.850,0.000,75.000
1.694,0.2556,-0.0028,0.2556,0.0000,0.0028,0.180,0.018,11.890,0.000,77.220
1.736,0.2674,-0.0028,0.2674,0.0000,0.0028,0.180,0.018,11.910,0.000,78.330
1.795,0.2751,-0.0029,0.2751,0.0000,0.0029,0.180,0.019,11.870,0.000,76.110
1.839,0.2829,-0.0030,0.2829,0.0000,0.0030,0.180,0.019,11.870,0.000,76.110
1.884,0.2946,-0.0030,0.2946,0.0000,0.0030,0.180,0.020,11.890,0.000,77.220
1.932,0.3024,-0.0031,0.3024,0.0000,0.0031,0.180,0.022,11.870,0.000,76.110
1.995,0.3100,-0.0032,0.3100,0.0000,0.0032,0.180,0.023,11.850,0.000,75.000
2.041,0.3215,-0.0033,0.3215,0.0000,0.0033,0.180,0.023,11.890,0.000,77.220
2.095,0.3292,-0.0034,0.3292,0.0000,0.0034,0.180,0.023,11.870,0.000,76.110
2.138,0.3368,-0.0034,0.3368,0.0000,0.0034,0.180,0.023,11.850,0.000,75.000
2.188,0.3482,-0.0035,0.3482,0.0000,0.0035,0.180,0.022,11.890,0.000,77.220
2.232,0.3561,-0.0036,0.3561,0.0000,0.0036,0.180,0.022,11.890,0.000,77.220
2.292,0.3636,-0.0036,0.3636,0.0000,0.0036,0.180,0.020,11.870,0.000,76.110
2.332,0.3752,-0.0037,0.3752,0.0000,0.0037,0.180,0.019,11.890,0.000,77.220
2.394,0.3829,-0.0038,0.3829,0.0000,0.0038,0.180,0.018,11.890,0.000,77.220
2.441,0.3905,-0.0038,0.3905,0.0000,0.0038,0.180,0.018,11.870,0.000,76.110
2.491,0.4020,-0.0039,0.4020,0.0000,0.0039,0.180,0.014,11.870,0.000,76.110
2.531,0.4096,-0.0039,0.4096,0.0000,0.0039,0.180,0.013,11.890,0.000,77.220
2.593,0.4172,-0.0039,0.4172,0.0000,0.0039,0.180,0.012,11.870,0.000,76.110
2.633,0.4285,-0.0040,0.4285,0.0000,0.0040,0.180,0.011,11.870,0.000,76.110
2.698,0.4361,-0.0040,0.4361,0.0000,0.0040,0.180,0.011,11.890,0.000,77.220
2.746,0.4476,-0.0040,0.4476,0.0000,0.0040,0.180,0.008,11.870,0.000,76.110
2.785,0.4554,-0.0040,0.4554,0.0000,0.0040,0.180,0.008,11.890,0.000,77.220
2.845,0.4632,-0.0040,0.4632,0.0000,0.0040,0.180,0.008,11.870,0.000,76.110
2.894,0.4749,-0.0040,0.4749,0.0000,0.0040,0.180,0.008,11.870,0.000,76.110
2.935,0.4827,-0.0040,0.4827,0.0000,0.0040,0.180,0.009,11.890,0.000,77.220
2.994,0.4906,-0.0040,0.4906,0.0000,0.0040,0.180,0.011,11.870,0.000,76.110
3.037,0.5021,-0.0040,0.5021,0.0000,0.0040,0.180,0.011,11.870,0.000,76.110
3.097,0.5098,-0.0041,0.5098,0.0000,0.0041,0.180,0.012,11.890,0.000,77.220
3.144,0.5176,-0.0041,0.5176,0.0000,0.0041,0.180,0.014,11.890,0.000,77.220
3.189,0.5290,-0.0041,0.5290,0.0000,0.0041,0.180,0.015,11.870,0.000,76.110
3.231,0.5366,-0.0042,0.5366,0.0000,0.0042,0.180,0.016,11.890,0.000,77.220
3.300,0.5443,-0.0042,0.5443,0.0000,0.0042,0.180,0.016,11.890,0.000,77.220
3.339,0.5558,-0.0043,0.5558,0.0000,0.0043,0.180,0.016,11.870,0.000,76.110
3.395,0.5635,-0.0043,0.5635,0.0000,0.0043,0.180,0.016,11.870,0.000,76.110
3.443,0.5713,-0.0043,0.5713,0.0000,0.0043,0.180,0.016,11.890,0.000,77.220
3.489,0.5828,-0.0044,0.5828,0.0000,0.0044,0.180,0.014,11.870,0.000,76.110
3.532,0.5904,-0.0044,0.5904,0.0000,0.0044,0.180,0.014,11.870,0.000,76.110
3.595,0.5981,-0.0044,0.5981,0.0000,0.0044,0.180,0.013,11.870,0.000,76.110
3.640,0.6095,-0.0044,0.6095,0.0000,0.0044,0.180,0.013,11.870,0.000,76.110
3.697,0.6171,-0.0044,0.6171,0.0000,0.0044,0.180,0.011,11.870,0.000,76.110
3.741,0.6247,-0.0044,0.6247,0.0000,0.0044,0.180,0.010,11.870,0.000,76.110
3.801,0.6360,-0.0044,0.6360,0.0000,0.0044,0.180,0.008,11.870,0.000,76.110
3.836,0.6436,-0.0044,0.6436,0.0000,0.0044,0.180,0.007,11.870,0.000,76.110
3.895,0.6513,-0.0044,0.6513,0.0000,0.0044,0.180,0.006,11.870,0.000,76.110
3.937,0.6630,-0.0044,0.6630,0.0000,0.0044,0.180,0.006,11.910,0.000,78.330
3.995,0.6707,-0.0044,0.6707,0.0000,0.0044,0.180,0.006,11.850,0.000,75.000
4.042,0.6785,-0.0044,0.6785,0.0000,0.0044,0.180,0.006,11.850,0.000,75.000
4.091,0.6902,-0.0044,0.6902,0.0000,0.0044,0.180,0.009,11.910,0.000,78.330
4.135,0.6980,-0.0044,0.6980,0.0000,0.0044,0.180,0.010,11.870,0.000,76.110
4.193,0.7057,-0.0044,0.7057,0.0000,0.0044,0.180,0.012,11.870,0.000,76.110
4.233,0.7169,-0.0044,0.7169,0.0000,0.0044,0.180,0.014,11.890,0.000,77.220
4.307,0.7248,-0.0044,0.7248,0.0000,0.0044,0.180,0.015,11.850,0.000,75.000
4.337,0.7323,-0.0045,0.7323,0.0000,0.0045,0.180,0.015,11.850,0.000,75.000
4.386,0.7437,-0.0045,0.7437,0.0000,0.0045,0.180,0.017,11.870,0.000,76.110
4.459,0.7515,-0.0046,0.7515,0.0000,0.0046,0.180,0.019,11.850,0.000,75.000
4.506,0.7630,-0.0046,0.7630,0.0000,0.0046,0.180,0.018,11.870,0.000,76.110
4.536,0.7706,-0.0046,0.7706,0.0000,0.0046,0.180,0.018,11.870,0.000,76.110
4.616,0.7780,-0.0047,0.7780,0.0000,0.0047,0.180,0.019,11.890,0.000,77.220
4.650,0.7896,-0.0047,0.7896,0.0000,0.0047,0.180,0.017,11.840,0.000,74.440
4.683,0.7971,-0.0047,0.7971,0.0000,0.0047,0.180,0.017,11.850,0.000,75.000
4.747,0.8049,-0.0047,0.8049,0.0000,0.0047,0.180,0.016,11.870,0.000,76.110
4.788,0.8163,-0.0048,0.8163,0.0000,0.0048,0.180,0.013,11.840,0.000,74.440
4.835,0.8238,-0.0048,0.8238,0.0000,0.0048,0.180,0.013,11.840,0.000,74.440
4.894,0.8314,-0.0048,0.8314,0.0000,0.0048,0.180,0.011,11.890,0.000,77.220
4.936,0.8428,-0.0048,0.8428,0.0000,0.0048,0.180,0.010,11.890,0.000,77.220
4.995,0.8503,-0.0048,0.8503,0.0000,0.0048,0.180,0.008,11.840,0.000,74.440
5.039,0.8581,-0.0048,0.8581,0.0000,0.0048,0.180,0.008,11.870,0.000,76.110
5.088,0.8696,-0.0047,0.8696,0.0000,0.0047,0.180,0.005,11.870,0.000,76.110
5.132,0.8772,-0.0047,0.8772,0.0000,0.0047,0.180,0.004,11.840,0.000,74.440
5.193,0.8851,-0.0047,0.8851,0.0000,0.0047,0.180,0.005,11.870,0.000,76.110
5.257,0.8969,-0.0046,0.8969,0.0000,0.0046,0.180,0.005,11.890,0.000,77.220
5.294,0.9048,-0.0046,0.9048,0.0000,0.0046,0.180,0.006,11.850,0.000,75.000
5.336,0.9124,-0.0046,0.9124,0.0000,0.0046,0.180,0.007,11.870,0.000,76.110
5.388,0.9241,-0.0046,0.9241,0.0000,0.0046,0.180,0.009,11.870,0.000,76.110
5.435,0.9319,-0.0046,0.9319,0.0000,0.0046,0.180,0.010,11.870,0.000,76.110
5.492,0.9394,-0.0046,0.9394,0.0000,0.0046,0.180,0.012,11.850,0.000,75.000
5.531,0.9508,-0.0046,0.9508,0.0000,0.0046,0.180,0.013,11.890,0.000,77.220
5.593,0.9586,-0.0046,0.9586,0.0000,0.0046,0.180,0.012,11.870,0.000,76.110
5.639,0.9661,-0.0046,0.9661,0.0000,0.0046,0.180,0.012,11.850,0.000,75.000
5.687,0.9776,-0.0046,0.9776,0.0000,0.0046,0.180,0.013,11.890,0.000,77.220
5.732,0.9856,-0.0046,0.9856,0.0000,0.0046,0.180,0.011,11.890,0.000,77.220
5.792,0.9931,-0.0046,0.9931,0.0000,0.0046,0.180,0.010,11.850,0.000,75.000
5.832,1.0046,-0.0045,1.0046,0.0000,0.0045,0.180,0.010,11.850,0.000,75.000
5.895,1.0120,-0.0045,1.0120,0.0000,0.0045,0.180,0.007,11.870,0.000,76.110
5.935,1.0233,-0.0045,1.0233,0.0000,0.0045,0.180,0.003,11.850,0.000,75.000
6.002,1.0308,-0.0044,1.0308,0.0000,0.0044,0.180,0.003,11.850,0.000,75.000
6.036,1.0385,-0.0044,1.0385,0.0000,0.0044,0.180,0.001,11.870,0.000,76.110
6.087,1.0495,-0.0043,1.0495,0.0000,0.0043,0.180,0.000,11.840,0.000,74.440
6.133,1.0570,-0.0043,1.0570,0.0000,0.0043,0.180,-0.001,11.840,0.000,74.440
6.191,1.0647,-0.0042,1.0647,0.0000,0.0042,0.180,-0.001,11.870,0.000,76.110
6.234,1.0763,-0.0041,1.0763,0.0000,0.0041,0.180,-0.001,11.840,0.000,74.440
6.294,1.0840,-0.0041,1.0840,0.0000,0.0041,0.180,-0.002,11.840,0.000,74.440
6.344,1.0919,-0.0040,1.0919,0.0000,0.0040,0.180,-0.002,11.870,0.000,76.110
6.386,1.1036,-0.0040,1.1036,0.0000,0.0040,0.180,-0.000,11.850,0.000,75.000
6.447,1.1115,-0.0039,1.1115,0.0000,0.0039,0.180,0.002,11.840,0.000,74.440
6.490,1.1229,-0.0039,1.1229,0.0000,0.0039,0.180,0.002,11.850,0.000,75.000
6.541,1.1307,-0.0038,1.1307,0.0000,0.0038,0.180,0.002,11.870,0.000,76.110
6.597,1.1385,-0.0038,1.1385,0.0000,0.0038,0.180,0.004,11.850,0.000,75.000
6.640,1.1499,-0.0038,1.1499,0.0000,0.0038,0.180,0.007,11.870,0.000,76.110
6.697,1.1574,-0.0037,1.1574,0.0000,0.0037,0.180,0.008,11.890,0.000,77.220
6.751,1.1654,-0.0037,1.1654,0.0000,0.0037,0.175,0.013,11.850,0.000,75.000
6.793,1.1767,-0.0037,1.1767,0.0000,0.0037,0.172,0.013,11.850,0.000,75.000
6.832,1.1841,-0.0037,1.1841,0.0000,0.0037,0.170,0.014,11.870,0.000,76.110
6.896,1.1917,-0.0037,1.1917,0.0000,0.0037,0.167,0.014,11.890,0.000,77.220
6.936,1.2025,-0.0037,1.2025,0.0000,0.0037,0.164,0.013,11.840,0.000,74.440
7.002,1.2093,-0.0037,1.2093,0.0000,0.0037,0.164,0.013,11.870,0.000,76.110
7.045,1.2163,-0.0037,1.2163,0.0000,0.0037,0.162,0.013,11.850,0.000,75.000
7.089,1.2264,-0.0037,1.2264,0.0000,0.0037,0.157,0.011,11.850,0.000,75.000
7.133,1.2331,-0.0036,1.2331,0.0000,0.0036,0.155,0.011,11.870,0.000,76.110
7.197,1.2399,-0.0036,1.2399,0.0000,0.0036,0.155,0.011,11.850,0.000,75.000
7.238,1.2495,-0.0036,1.2495,0.0000,0.0036,0.153,0.008,11.850,0.000,75.000
7.296,1.2560,-0.0036,1.2560,0.0000,0.0036,0.148,0.004,11.850,0.000,75.000
7.340,1.2622,-0.0035,1.2622,0.0000,0.0035,0.148,0.004,11.850,0.000,75.000
7.388,1.2719,-0.0035,1.2719,0.0000,0.0035,0.143,0.004,11.870,0.000,76.110
7.430,1.2781,-0.0034,1.2781,0.0000,0.0034,0.142,0.003,11.840,0.000,74.440
7.496,1.2839,-0.0034,1.2839,0.0000,0.0034,0.140,0.003,11.850,0.000,75.000
7.539,1.2929,-0.0033,1.2929,0.0000,0.0033,0.140,0.003,11.820,0.000,73.330
7.600,1.2989,-0.0033,1.2989,0.0000,0.0033,0.137,0.003,11.850,0.000,75.000
7.637,1.3049,-0.0033,1.3049,0.0000,0.0033,0.135,0.004,11.840,0.000,74.440
7.703,1.3133,-0.0032,1.3133,0.0000,0.0032,0.134,0.004,11.840,0.000,74.440
7.732,1.3191,-0.0032,1.3191,0.0000,0.0032,0.129,0.007,11.840,0.000,74.440
7.792,1.3246,-0.0032,1.3246,0.0000,0.0032,0.128,0.009,11.850,0.000,75.000
7.835,1.3331,-0.0031,1.3331,0.0000,0.0031,0.125,0.010,11.850,0.000,75.000
7.895,1.3382,-0.0031,1.3382,0.0000,0.0031,0.124,0.011,11.840,0.000,74.440
7.937,1.3434,-0.0031,1.3434,0.0000,0.0031,0.124,0.011,11.850,0.000,75.000
7.984,1.3510,-0.0031,1.3510,0.0000,0.0031,0.122,0.013,11.840,0.000,74.440
8.031,1.3562,-0.0031,1.3562,0.0000,0.0031,0.118,0.013,11.850,0.000,75.000
8.119,1.3611,-0.0031,1.3611,0.0000,0.0031,0.118,0.013,11.820,0.000,73.330
8.140,1.3686,-0.0030,1.3686,0.0000,0.0030,0.117,0.013,11.820,0.000,73.330
8.195,1.3732,-0.0030,1.3732,0.0000,0.0030,0.113,0.014,11.870,0.000,76.110
8.254,1.3778,-0.0030,1.3778,0.0000,0.0030,0.112,0.013,11.840,0.000,74.440
8.315,1.3849,-0.0030,1.3849,0.0000,0.0030,0.110,0.013,11.850,0.000,75.000
8.350,1.3896,-0.0030,1.3896,0.0000,0.0030,0.108,0.013,11.850,0.000,75.000
8.399,1.3944,-0.0030,1.3944,0.0000,0.0030,0.108,0.013,11.850,0.000,75.000
8.457,1.4011,-0.0029,1.4011,0.0000,0.0029,0.107,0.013,11.850,0.000,75.000
8.508,1.4056,-0.0029,1.4056,0.0000,0.0029,0.103,0.010,11.840,0.000,74.440
8.556,1.4119,-0.0029,1.4119,0.0000,0.0029,0.103,0.010,11.850,0.000,75.000
8.597,1.4163,-0.0029,1.4163,0.0000,0.0029,0.101,0.009,11.850,0.000,75.000
8.640,1.4205,-0.0028,1.4205,0.0000,0.0028,0.100,0.009,11.850,0.000,75.000
8.688,1.4269,-0.0028,1.4269,0.0000,0.0028,0.097,0.006,11.850,0.000,75.000
8.733,1.4311,-0.0028,1.4311,0.0000,0.0028,0.096,0.006,11.870,0.000,76.110
8.843,1.4353,-0.0027,1.4353,0.0000,0.0027,0.096,0.006,11.870,0.000,76.110
8.843,1.4411,-0.0027,1.4411,0.0000,0.0027,0.096,0.006,11.870,0.000,76.110
8.897,1.4450,-0.0027,1.4450,0.0000,0.0027,0.093,0.006,11.850,0.000,75.000
8.944,1.4487,-0.0027,1.4487,0.0000,0.0027,0.092,0.005,11.850,0.000,75.000
8.993,1.4544,-0.0026,1.4544,0.0000,0.0026,0.089,0.005,11.870,0.000,76.110
9.034,1.4582,-0.0026,1.4582,0.0000,0.0026,0.088,0.004,11.870,0.000,76.110
9.109,1.4619,-0.0026,1.4619,0.0000,0.0026,0.086,0.001,11.870,0.000,76.110
9.136,1.4674,-0.0025,1.4674,0.0000,0.0025,0.086,0.001,11.870,0.000,76.110
9.197,1.4708,-0.0025,1.4708,0.0000,0.0025,0.085,0.001,11.850,0.000,75.000
9.240,1.4741,-0.0024,1.4741,0.0000,0.0024,0.084,0.001,11.870,0.000,76.110
9.289,1.4793,-0.0024,1.4793,0.0000,0.0024,0.081,-0.000,11.890,0.000,77.220
9.333,1.4828,-0.0024,1.4828,0.0000,0.0024,0.080,-0.001,11.850,0.000,75.000
9.394,1.4862,-0.0023,1.4862,0.0000,0.0023,0.079,-0.003,11.890,0.000,77.220
9.436,1.4914,-0.0023,1.4914,0.0000,0.0023,0.079,-0.003,11.870,0.000,76.110
9.503,1.4949,-0.0023,1.4949,0.0000,0.0023,0.078,-0.003,11.890,0.000,77.220
9.544,1.4982,-0.0022,1.4982,0.0000,0.0022,0.077,-0.004,11.890,0.000,77.220
9.601,1.5028,-0.0022,1.5028,0.0000,0.0022,0.076,-0.005,11.890,0.000,77.220
9.632,1.5058,-0.0021,1.5058,0.0000,0.0021,0.073,-0.005,11.890,0.000,77.220
9.693,1.5088,-0.0021,1.5088,0.0000,0.0021,0.072,-0.006,11.890,0.000,77.220
9.734,1.5134,-0.0021,1.5134,0.0000,0.0021,0.071,-0.005,11.890,0.000,77.220
9.796,1.5164,-0.0020,1.5164,0.0000,0.0020,0.071,-0.005,11.890,0.000,77.220
9.841,1.5194,-0.0020,1.5194,0.0000,0.0020,0.070,-0.005,11.890,0.000,77.220
9.898,1.5240,-0.0019,1.5240,0.0000,0.0019,0.069,-0.006,11.890,0.000,77.220
9.942,1.5269,-0.0019,1.5269,0.0000,0.0019,0.068,-0.007,11.910,0.000,78.330
9.992,1.5312,-0.0019,1.5312,0.0000,0.0019,0.066,-0.005,11.910,0.000,78.330
10.036,1.5338,-0.0018,1.5338,0.0000,0.0018,0.066,-0.005,11.890,0.000,77.220
10.096,1.5363,-0.0018,1.5363,0.0000,0.0018,0.065,-0.006,11.890,0.000,77.220
10.137,1.5402,-0.0018,1.5402,0.0000,0.0018,0.064,-0.006,11.910,0.000,78.330
10.187,1.5428,-0.0018,1.5428,0.0000,0.0018,0.062,-0.004,11.910,0.000,78.330
10.240,1.5453,-0.0017,1.5453,0.0000,0.0017,0.062,-0.004,11.910,0.000,78.330
10.287,1.5491,-0.0017,1.5491,0.0000,0.0017,0.060,-0.003,11.890,0.000,77.220
10.335,1.5516,-0.0017,1.5516,0.0000,0.0017,0.060,-0.002,11.910,0.000,78.330
10.397,1.5542,-0.0016,1.5542,0.0000,0.0016,0.060,-0.002,11.930,0.000,79.440
10.466,1.5580,-0.0016,1.5580,0.0000,0.0016,0.058,-0.001,11.930,0.000,79.440
10.504,1.5602,-0.0016,1.5602,0.0000,0.0016,0.058,-0.001,11.930,0.000,79.440
10.545,1.5623,-0.0016,1.5623,0.0000,0.0016,0.057,-0.001,11.910,0.000,78.330
10.592,1.5655,-0.0015,1.5655,0.0000,0.0015,0.055,-0.001,11.910,0.000,78.330
10.633,1.5677,-0.0015,1.5677,0.0000,0.0015,0.055,-0.000,11.930,0.000,79.440
10.693,1.5698,-0.0015,1.5698,0.0000,0.0015,0.054,0.000,11.930,0.000,79.440
10.737,1.5730,-0.0015,1.5730,0.0000,0.0015,0.054,0.000,11.930,0.000,79.440
10.784,1.5751,-0.0015,1.5751,0.0000,0.0015,0.053,0.000,11.930,0.000,79.440
10.840,1.5772,-0.0015,1.5772,0.0000,0.0015,0.052,-0.000,11.910,0.000,78.330
10.887,1.5805,-0.0014,1.5805,0.0000,0.0014,0.051,-0.000,11.930,0.000,79.440
10.933,1.5826,-0.0014,1.5826,0.0000,0.0014,0.050,-0.000,11.930,0.000,79.440
10.992,1.5847,-0.0014,1.5847,0.0000,0.0014,0.050,0.000,11.910,0.000,78.330
11.032,1.5879,-0.0014,1.5879,0.0000,0.0014,0.050,-0.000,11.910,0.000,78.330
11.094,1.5900,-0.0013,1.5900,0.0000,0.0013,0.050,0.000,11.910,0.000,78.330
11.138,1.5922,-0.0013,1.5922,0.0000,0.0013,0.050,0.000,11.930,0.000,79.440
11.187,1.5955,-0.0013,1.5955,0.0000,0.0013,0.050,-0.000,11.930,0.000,79.440
11.234,1.5976,-0.0013,1.5976,0.0000,0.0013,0.050,0.002,11.930,0.000,79.440
11.291,1.5997,-0.0013,1.5997,0.0000,0.0013,0.050,0.001,11.910,0.000,78.330
11.332,1.6029,-0.0012,1.6029,0.0000,0.0012,0.050,-0.001,11.930,0.000,79.440
11.397,1.6050,-0.0012,1.6050,0.0000,0.0012,0.050,-0.001,11.950,0.000,80.550
11.437,1.6083,-0.0012,1.6083,0.0000,0.0012,0.050,-0.001,11.930,0.000,79.440
11.504,1.6105,-0.0012,1.6105,0.0000,0.0012,0.050,-0.001,11.930,0.000,79.440
11.541,1.6125,-0.0012,1.6125,0.0000,0.0012,0.050,-0.001,11.910,0.000,78.330
11.588,1.6157,-0.0011,1.6157,0.0000,0.0011,0.050,-0.004,11.930,0.000,79.440
11.633,1.6179,-0.0011,1.6179,0.0000,0.0011,0.050,-0.005,11.930,0.000,79.440
11.696,1.6201,-0.0011,1.6201,0.0000,0.0011,0.050,-0.005,11.930,0.000,79.440
11.735,1.6232,-0.0011,1.6232,0.0000,0.0011,0.050,-0.004,11.930,0.000,79.440
11.797,1.6254,-0.0010,1.6254,0.0000,0.0010,0.050,-0.004,11.930,0.000,79.440
11.840,1.6275,-0.0010,1.6275,0.0000,0.0010,0.050,-0.005,11.910,0.000,78.330
11.889,1.6307,-0.0010,1.6307,0.0000,0.0010,0.050,-0.006,11.930,0.000,79.440
11.930,1.6329,-0.0010,1.6329,0.0000,0.0010,0.050,-0.005,11.930,0.000,79.440
12.016,1.6350,-0.0009,1.6350,0.0000,0.0009,0.050,-0.007,11.930,0.000,79.440
12.035,1.6381,-0.0009,1.6381,0.0000,0.0009,0.050,-0.008,11.930,0.000,79.440
12.093,1.6402,-0.0009,1.6402,0.0000,0.0009,0.050,-0.010,11.910,0.000,78.330
12.136,1.6424,-0.0009,1.6424,0.0000,0.0009,0.050,-0.010,11.930,0.000,79.440
12.188,1.6456,-0.0008,1.6456,0.0000,0.0008,0.050,-0.012,11.930,0.000,79.440
12.231,1.6477,-0.0008,1.6477,0.0000,0.0008,0.050,-0.012,11.930,0.000,79.440
12.293,1.6498,-0.0008,1.6498,0.0000,0.0008,0.050,-0.010,11.930,0.000,79.440
12.334,1.6530,-0.0008,1.6530,0.0000,0.0008,0.050,-0.010,11.930,0.000,79.440
12.397,1.6550,-0.0007,1.6550,0.0000,0.0007,0.050,-0.010,11.930,0.000,79.440
12.438,1.6571,-0.0007,1.6571,0.0000,0.0007,0.050,-0.010,11.930,0.000,79.440
12.488,1.6603,-0.0007,1.6603,0.0000,0.0007,0.050,-0.012,11.930,0.000,79.440
12.530,1.6624,-0.0007,1.6624,0.0000,0.0007,0.050,-0.010,11.910,0.000,78.330
12.592,1.6644,-0.0006,1.6644,0.0000,0.0006,0.050,-0.009,11.930,0.000,79.440
12.632,1.6676,-0.0006,1.6676,0.0000,0.0006,0.050,-0.011,11.930,0.000,79.440
12.714,1.6697,-0.0006,1.6697,0.0000,0.0006,0.050,-0.013,11.930,0.000,79.440
12.740,1.6729,-0.0006,1.6729,0.0000,0.0006,0.050,-0.013,11.930,0.000,79.440
12.797,1.6750,-0.0005,1.6750,0.0000,0.0005,0.050,-0.013,11.930,0.000,79.440
12.845,1.6771,-0.0005,1.6771,0.0000,0.0005,0.050,-0.010,11.930,0.000,79.440
12.900,1.6802,-0.0005,1.6802,0.0000,0.0005,0.050,-0.011,11.930,0.000,79.440
12.938,1.6824,-0.0005,1.6824,0.0000,0.0005,0.050,-0.012,11.930,0.000,79.440
12.992,1.6845,-0.0005,1.6845,0.0000,0.0005,0.050,-0.011,11.930,0.000,79.440
13.034,1.6878,-0.0004,1.6878,0.0000,0.0004,0.050,-0.009,11.910,0.000,78.330
13.097,1.6899,-0.0004,1.6899,0.0000,0.0004,0.050,-0.009,11.910,0.000,78.330
13.139,1.6919,-0.0004,1.6919,0.0000,0.0004,0.050,-0.009,11.930,0.000,79.440
13.257,1.6952,-0.0004,1.6952,0.0000,0.0004,0.050,1.200,11.930,0.000,79.440
