t,x,y,ref_x,ref_y,err,v,w,voltage,current,percentage
0.001,-0.0017,0.0457,0.0000,0.0457,0.0017,0.018,0.900,12.090,0.000,88.330
0.043,-0.0017,0.0457,0.0000,0.0457,0.0017,0.018,0.900,12.090,0.000,88.330
0.087,-0.0017,0.0457,0.0000,0.0457,0.0017,0.018,0.900,12.110,0.000,89.440
0.400,-0.0017,0.0457,0.0000,0.0457,0.0017,0.018,0.900,12.110,0.000,89.440
0.402,-0.0017,0.0457,0.0000,0.0457,0.0017,0.018,0.900,12.090,0.000,88.330
0.403,-0.0017,0.0457,0.0000,0.0457,0.0017,0.018,0.900,12.110,0.000,89.440
0.404,-0.0017,0.0457,0.0000,0.0457,0.0017,0.018,0.900,12.090,0.000,88.330
0.406,-0.0017,0.0457,0.0000,0.0457,0.0017,0.018,0.900,12.110,0.000,89.440
0.407,-0.0017,0.0457,0.0000,0.0457,0.0017,0.018,0.900,12.090,0.000,88.330
0.446,-0.0017,0.0457,0.0000,0.0457,0.0017,0.018,0.900,12.110,0.000,89.440
0.488,-0.0017,0.0457,0.0000,0.0457,0.0017,0.020,0.990,12.040,0.000,85.550
0.547,-0.0017,0.0453,0.0000,0.0453,0.0017,0.020,0.999,12.040,0.000,85.550
0.592,-0.0017,0.0449,0.0000,0.0449,0.0017,0.020,0.999,12.060,0.000,86.660
0.639,-0.0016,0.0443,0.0000,0.0443,0.0016,0.020,0.999,12.040,0.000,85.550
0.700,-0.0015,0.0440,0.0000,0.0440,0.0015,0.020,1.000,12.040,0.000,85.550
0.744,-0.0014,0.0435,0.0000,0.0435,0.0014,0.020,1.000,12.040,0.000,85.550
0.813,-0.0013,0.0430,0.0000,0.0430,0.0013,0.020,1.000,12.040,0.000,85.550
0.849,-0.0011,0.0427,0.0000,0.0427,0.0011,0.020,1.000,12.040,0.000,85.550
0.891,-0.0009,0.0421,0.0000,0.0421,0.0009,0.020,1.000,12.040,0.000,85.550
0.941,-0.0008,0.0418,0.0000,0.0418,0.0008,0.020,1.000,12.040,0.000,85.550
1.006,-0.0005,0.0413,0.0000,0.0413,0.0005,0.020,1.000,12.040,0.000,85.550
1.045,-0.0001,0.0406,0.0000,0.0406,0.0001,0.020,1.000,12.040,0.000,85.550
1.091,0.0001,0.0402,0.0000,0.0402,0.0001,0.020,1.000,12.040,0.000,85.550
1.147,0.0005,0.0398,0.0000,0.0398,0.0005,0.020,1.000,12.060,0.000,86.660
1.189,0.0010,0.0391,0.0000,0.0391,0.0010,0.020,1.000,12.040,0.000,85.550
1.249,0.0013,0.0387,0.0000,0.0387,0.0013,0.020,1.000,12.040,0.000,85.550
1.296,0.0016,0.0384,0.0000,0.0384,0.0016,0.020,1.000,12.060,0.000,86.660
1.344,0.0021,0.0379,0.0000,0.0379,0.0021,0.020,1.000,12.040,0.000,85.550
1.390,0.0025,0.0376,0.0000,0.0376,0.0025,0.020,1.000,12.040,0.000,85.550
1.447,0.0029,0.0373,0.0000,0.0373,0.0029,0.020,1.000,12.040,0.000,85.550
1.491,0.0035,0.0369,0.0000,0.0369,0.0035,0.020,1.000,12.040,0.000,85.550
1.548,0.0037,0.0367,0.0000,0.0367,0.0037,0.020,0.866,12.060,0.000,86.660
1.594,0.0041,0.0365,0.0000,0.0365,0.0041,0.020,0.866,12.040,0.000,85.550
1.642,0.0046,0.0362,0.0000,0.0362,0.0046,0.020,0.866,12.040,0.000,85.550
1.693,0.0050,0.0360,0.0000,0.0360,0.0050,0.020,0.738,12.040,0.000,85.550
1.745,0.0054,0.0359,0.0000,0.0359,0.0054,0.148,0.571,12.040,0.000,85.550
1.792,0.0061,0.0356,0.0000,0.0356,0.0061,0.148,0.571,12.040,0.000,85.550
1.853,0.0065,0.0355,0.0000,0.0355,0.0065,0.174,0.395,12.040,0.000,85.550
1.901,0.0076,0.0352,0.0000,0.0352,0.0076,0.174,0.395,12.060,0.000,86.660
1.949,0.0120,0.0341,0.0000,0.0341,0.0120,0.179,0.330,12.060,0.000,86.660
2.010,0.0175,0.0329,0.0000,0.0329,0.0175,0.179,0.330,12.040,0.000,85.550
2.044,0.0271,0.0310,0.0000,0.0310,0.0271,0.179,0.330,12.060,0.000,86.660
2.088,0.0343,0.0297,0.0343,0.0000,0.0297,0.180,0.278,12.060,0.000,86.660
2.149,0.0414,0.0286,0.0414,0.0000,0.0286,0.180,0.248,12.060,0.000,86.660
2.190,0.0519,0.0270,0.0519,0.0000,0.0270,0.180,0.248,12.040,0.000,85.550
2.259,0.0593,0.0261,0.0593,0.0000,0.0261,0.180,0.235,12.060,0.000,86.660
2.302,0.0663,0.0252,0.0663,0.0000,0.0252,0.180,0.235,12.060,0.000,86.660
2.348,0.0773,0.0241,0.0773,0.0000,0.0241,0.180,0.095,12.060,0.000,86.660
2.390,0.0845,0.0234,0.0845,0.0000,0.0234,0.180,0.095,12.060,0.000,86.660
2.450,0.0920,0.0228,0.0920,0.0000,0.0228,0.180,0.053,12.060,0.000,86.660
2.489,0.1028,0.0220,0.1028,0.0000,0.0220,0.180,0.053,12.060,0.000,86.660
2.559,0.1102,0.0215,0.1102,0.0000,0.0215,0.180,0.039,12.040,0.000,85.550
2.595,0.1173,0.0211,0.1173,0.0000,0.0211,0.180,0.039,12.060,0.000,86.660
2.643,0.1282,0.0205,0.1282,0.0000,0.0205,0.180,0.039,12.040,0.000,85.550
2.688,0.1355,0.0201,0.1355,0.0000,0.0201,0.180,0.034,12.040,0.000,85.550
2.746,0.1424,0.0197,0.1424,0.0000,0.0197,0.180,0.031,12.060,0.000,86.660
2.790,0.1533,0.0192,0.1533,0.0000,0.0192,0.180,0.031,12.060,0.000,86.660
2.853,0.1604,0.0188,0.1604,0.0000,0.0188,0.180,0.029,12.040,0.000,85.550
2.890,0.1676,0.0185,0.1676,0.0000,0.0185,0.180,0.029,12.060,0.000,86.660
2.943,0.1785,0.0180,0.1785,0.0000,0.0180,0.180,0.029,12.040,0.000,85.550
2.989,0.1856,0.0177,0.1856,0.0000,0.0177,0.180,0.027,12.040,0.000,85.550
3.053,0.1928,0.0174,0.1928,0.0000,0.0174,0.180,0.025,12.040,0.000,85.550
3.087,0.2037,0.0169,0.2037,0.0000,0.0169,0.180,0.025,12.040,0.000,85.550
3.151,0.2110,0.0166,0.2110,0.0000,0.0166,0.180,0.025,12.040,0.000,85.550
3.192,0.2219,0.0161,0.2219,0.0000,0.0161,0.180,0.025,12.040,0.000,85.550
3.252,0.2291,0.0158,0.2291,0.0000,0.0158,0.180,0.026,12.040,0.000,85.550
3.303,0.2364,0.0155,0.2364,0.0000,0.0155,0.180,0.026,12.040,0.000,85.550
3.345,0.2471,0.0151,0.2471,0.0000,0.0151,0.180,0.025,12.040,0.000,85.550
3.389,0.2544,0.0148,0.2544,0.0000,0.0148,0.180,0.025,12.060,0.000,86.660
3.474,0.2618,0.0145,0.2618,0.0000,0.0145,0.180,0.024,12.020,0.000,84.440
3.491,0.2727,0.0140,0.2727,0.0000,0.0140,0.180,0.024,12.020,0.000,84.440
3.552,0.2799,0.0138,0.2799,0.0000,0.0138,0.180,0.024,12.040,0.000,85.550
3.601,0.2873,0.0135,0.2873,0.0000,0.0135,0.180,0.024,12.040,0.000,85.550
3.643,0.2983,0.0131,0.2983,0.0000,0.0131,0.180,0.024,12.040,0.000,85.550
3.689,0.3054,0.0128,0.3054,0.0000,0.0128,0.180,0.022,12.040,0.000,85.550
3.751,0.3128,0.0125,0.3128,0.0000,0.0125,0.180,0.022,12.040,0.000,85.550
3.801,0.3237,0.0122,0.3237,0.0000,0.0122,0.180,0.022,12.040,0.000,85.550
3.883,0.3308,0.0119,0.3308,0.0000,0.0119,0.180,0.020,12.040,0.000,85.550
3.894,0.3382,0.0117,0.3382,0.0000,0.0117,0.180,0.020,12.040,0.000,85.550
3.954,0.3490,0.0113,0.3490,0.0000,0.0113,0.180,0.020,12.040,0.000,85.550
3.989,0.3560,0.0111,0.3560,0.0000,0.0111,0.180,0.020,12.040,0.000,85.550
4.046,0.3633,0.0108,0.3633,0.0000,0.0108,0.180,0.018,12.040,0.000,85.550
4.090,0.3741,0.0105,0.3741,0.0000,0.0105,0.180,0.018,12.040,0.000,85.550
4.147,0.3812,0.0103,0.3812,0.0000,0.0103,0.180,0.017,12.060,0.000,86.660
4.201,0.3886,0.0101,0.3886,0.0000,0.0101,0.180,0.017,12.040,0.000,85.550
4.240,0.3992,0.0098,0.3992,0.0000,0.0098,0.180,0.017,12.040,0.000,85.550
4.288,0.4064,0.0096,0.4064,0.0000,0.0096,0.180,0.017,12.060,0.000,86.660
4.348,0.4138,0.0094,0.4138,0.0000,0.0094,0.180,0.018,12.040,0.000,85.550
4.387,0.4245,0.0091,0.4245,0.0000,0.0091,0.180,0.018,12.040,0.000,85.550
4.455,0.4319,0.0088,0.4319,0.0000,0.0088,0.180,0.018,12.060,0.000,86.660
4.513,0.4428,0.0085,0.4428,0.0000,0.0085,0.180,0.018,12.040,0.000,85.550
4.573,0.4499,0.0083,0.4499,0.0000,0.0083,0.180,0.019,12.060,0.000,86.660
4.602,0.4572,0.0081,0.4572,0.0000,0.0081,0.180,0.019,12.060,0.000,86.660
4.643,0.4683,0.0078,0.4683,0.0000,0.0078,0.180,0.019,12.020,0.000,84.440
4.688,0.4753,0.0076,0.4753,0.0000,0.0076,0.180,0.018,12.060,0.000,86.660
4.749,0.4828,0.0074,0.4828,0.0000,0.0074,0.180,0.017,12.060,0.000,86.660
4.791,0.4939,0.0071,0.4939,0.0000,0.0071,0.180,0.017,12.040,0.000,85.550
4.852,0.5009,0.0069,0.5009,0.0000,0.0069,0.180,0.017,12.060,0.000,86.660
4.901,0.5084,0.0067,0.5084,0.0000,0.0067,0.180,0.017,12.060,0.000,86.660
4.942,0.5194,0.0064,0.5194,0.0000,0.0064,0.180,0.017,12.040,0.000,85.550
4.989,0.5264,0.0062,0.5264,0.0000,0.0062,0.180,0.017,12.060,0.000,86.660
5.047,0.5338,0.0060,0.5338,0.0000,0.0060,0.180,0.018,12.040,0.000,85.550
5.090,0.5447,0.0057,0.5447,0.0000,0.0057,0.180,0.018,12.040,0.000,85.550
5.150,0.5517,0.0055,0.5517,0.0000,0.0055,0.180,0.017,12.060,0.000,86.660
5.194,0.5591,0.0053,0.5591,0.0000,0.0053,0.180,0.017,12.040,0.000,85.550
5.252,0.5699,0.0050,0.5699,0.0000,0.0050,0.180,0.017,12.040,0.000,85.550
5.290,0.5769,0.0048,0.5769,0.0000,0.0048,0.180,0.017,12.040,0.000,85.550
5.346,0.5843,0.0047,0.5843,0.0000,0.0047,0.180,0.016,12.040,0.000,85.550
5.391,0.5951,0.0044,0.5951,0.0000,0.0044,0.180,0.016,12.040,0.000,85.550
5.448,0.6021,0.0042,0.6021,0.0000,0.0042,0.180,0.016,12.040,0.000,85.550
5.494,0.6095,0.0041,0.6095,0.0000,0.0041,0.180,0.016,12.040,0.000,85.550
5.544,0.6201,0.0038,0.6201,0.0000,0.0038,0.180,0.016,12.040,0.000,85.550
5.591,0.6275,0.0036,0.6275,0.0000,0.0036,0.180,0.016,12.040,0.000,85.550
5.680,0.6348,0.0035,0.6348,0.0000,0.0035,0.180,0.017,12.020,0.000,84.440
5.689,0.6455,0.0032,0.6455,0.0000,0.0032,0.180,0.017,12.040,0.000,85.550
5.747,0.6528,0.0030,0.6528,0.0000,0.0030,0.180,0.017,12.060,0.000,86.660
5.791,0.6602,0.0028,0.6602,0.0000,0.0028,0.180,0.017,12.040,0.000,85.550
5.847,0.6710,0.0026,0.6710,0.0000,0.0026,0.180,0.018,12.040,0.000,85.550
5.901,0.6784,0.0024,0.6784,0.0000,0.0024,0.180,0.018,12.040,0.000,85.550
5.944,0.6894,0.0021,0.6894,0.0000,0.0021,0.180,0.018,12.040,0.000,85.550
5.990,0.6966,0.0020,0.6966,0.0000,0.0020,0.180,0.017,12.040,0.000,85.550
6.050,0.7039,0.0018,0.7039,0.0000,0.0018,0.180,0.016,12.080,0.000,87.770
6.102,0.7150,0.0016,0.7150,0.0000,0.0016,0.180,0.016,12.040,0.000,85.550
6.139,0.7221,0.0014,0.7221,0.0000,0.0014,0.180,0.016,12.040,0.000,85.550
6.203,0.7295,0.0013,0.7295,0.0000,0.0013,0.180,0.016,12.040,0.000,85.550
6.243,0.7404,0.0010,0.7404,0.0000,0.0010,0.180,0.016,12.040,0.000,85.550
6.291,0.7475,0.0009,0.7475,0.0000,0.0009,0.180,0.016,12.040,0.000,85.550
6.355,0.7548,0.0007,0.7548,0.0000,0.0007,0.180,0.016,12.040,0.000,85.550
6.391,0.7656,0.0005,0.7656,0.0000,0.0005,0.180,0.016,12.020,0.000,84.440
6.452,0.7727,0.0004,0.7727,0.0000,0.0004,0.180,0.016,12.040,0.000,85.550
6.513,0.7800,0.0002,0.7800,0.0000,0.0002,0.180,0.016,12.060,0.000,86.660
6.544,0.7907,0.0000,0.7907,0.0000,0.0000,0.180,0.016,12.040,0.000,85.550
6.592,0.7979,-0.0001,0.7979,0.0000,0.0001,0.180,0.014,12.040,0.000,85.550
6.648,0.8052,-0.0002,0.8052,0.0000,0.0002,0.180,0.014,12.060,0.000,86.660
6.691,0.8160,-0.0004,0.8160,0.0000,0.0004,0.180,0.014,12.040,0.000,85.550
6.751,0.8231,-0.0005,0.8231,0.0000,0.0005,0.180,0.013,12.040,0.000,85.550
6.801,0.8304,-0.0006,0.8304,0.0000,0.0006,0.180,0.013,12.040,0.000,85.550
6.843,0.8412,-0.0008,0.8412,0.0000,0.0008,0.180,0.013,12.040,0.000,85.550
6.890,0.8485,-0.0009,0.8485,0.0000,0.0009,0.180,0.014,12.060,0.000,86.660
6.945,0.8558,-0.0010,0.8558,0.0000,0.0010,0.180,0.014,12.040,0.000,85.550
6.990,0.8668,-0.0012,0.8668,0.0000,0.0012,0.180,0.014,12.060,0.000,86.660
7.048,0.8740,-0.0013,0.8740,0.0000,0.0013,0.180,0.014,12.040,0.000,85.550
7.102,0.8813,-0.0014,0.8813,0.0000,0.0014,0.180,0.014,12.040,0.000,85.550
7.144,0.8923,-0.0016,0.8923,0.0000,0.0016,0.180,0.014,12.040,0.000,85.550
7.189,0.8996,-0.0017,0.8996,0.0000,0.0017,0.180,0.013,12.040,0.000,85.550
7.244,0.9070,-0.0018,0.9070,0.0000,0.0018,0.180,0.013,12.060,0.000,86.660
7.291,0.9179,-0.0019,0.9179,0.0000,0.0019,0.180,0.012,12.040,0.000,85.550
7.354,0.9252,-0.0020,0.9252,0.0000,0.0020,0.180,0.012,12.060,0.000,86.660
7.392,0.9361,-0.0022,0.9361,0.0000,0.0022,0.180,0.012,12.040,0.000,85.550
7.441,0.9434,-0.0023,0.9434,0.0000,0.0023,0.180,0.012,12.040,0.000,85.550
7.513,0.9506,-0.0024,0.9506,0.0000,0.0024,0.180,0.012,12.040,0.000,85.550
7.543,0.9614,-0.0025,0.9614,0.0000,0.0025,0.180,0.012,12.040,0.000,85.550
7.591,0.9686,-0.0026,0.9686,0.0000,0.0026,0.180,0.011,12.060,0.000,86.660
7.649,0.9757,-0.0026,0.9757,0.0000,0.0026,0.180,0.011,12.040,0.000,85.550
7.701,0.9866,-0.0027,0.9866,0.0000,0.0027,0.180,0.011,12.040,0.000,85.550
7.750,0.9939,-0.0028,0.9939,0.0000,0.0028,0.180,0.010,12.040,0.000,85.550
7.801,1.0010,-0.0029,1.0010,0.0000,0.0029,0.180,0.010,12.040,0.000,85.550
7.842,1.0118,-0.0029,1.0118,0.0000,0.0029,0.180,0.010,12.040,0.000,85.550
7.891,1.0191,-0.0030,1.0191,0.0000,0.0030,0.180,0.009,12.040,0.000,85.550
7.954,1.0261,-0.0030,1.0261,0.0000,0.0030,0.180,0.009,12.060,0.000,86.660
7.989,1.0370,-0.0031,1.0370,0.0000,0.0031,0.180,0.009,12.040,0.000,85.550
8.050,1.0444,-0.0031,1.0444,0.0000,0.0031,0.180,0.009,12.040,0.000,85.550
8.102,1.0515,-0.0032,1.0515,0.0000,0.0032,0.180,0.009,12.040,0.000,85.550
8.143,1.0623,-0.0033,1.0623,0.0000,0.0033,0.180,0.009,12.040,0.000,85.550
8.193,1.0697,-0.0033,1.0697,0.0000,0.0033,0.180,0.009,12.040,0.000,85.550
8.250,1.0769,-0.0034,1.0769,0.0000,0.0034,0.180,0.010,12.060,0.000,86.660
8.290,1.0878,-0.0035,1.0878,0.0000,0.0035,0.180,0.010,12.040,0.000,85.550
8.347,1.0952,-0.0035,1.0952,0.0000,0.0035,0.180,0.010,12.040,0.000,85.550
8.395,1.1025,-0.0036,1.1025,0.0000,0.0036,0.180,0.010,12.060,0.000,86.660
8.442,1.1134,-0.0036,1.1134,0.0000,0.0036,0.180,0.010,12.060,0.000,86.660
8.492,1.1207,-0.0037,1.1207,0.0000,0.0037,0.180,0.010,12.040,0.000,85.550
8.548,1.1279,-0.0037,1.1279,0.0000,0.0037,0.180,0.010,12.040,0.000,85.550
8.588,1.1388,-0.0038,1.1388,0.0000,0.0038,0.180,0.010,12.060,0.000,86.660
8.658,1.1461,-0.0038,1.1461,0.0000,0.0038,0.180,0.011,12.040,0.000,85.550
8.695,1.1568,-0.0039,1.1568,0.0000,0.0039,0.180,0.011,12.060,0.000,86.660
8.757,1.1642,-0.0040,1.1642,0.0000,0.0040,0.180,0.011,12.040,0.000,85.550
8.801,1.1714,-0.0040,1.1714,0.0000,0.0040,0.180,0.011,12.040,0.000,85.550
8.843,1.1822,-0.0041,1.1822,0.0000,0.0041,0.180,0.011,12.040,0.000,85.550
8.890,1.1894,-0.0041,1.1894,0.0000,0.0041,0.180,0.010,12.060,0.000,86.660
8.949,1.1966,-0.0042,1.1966,0.0000,0.0042,0.180,0.009,12.020,0.000,84.440
9.027,1.2073,-0.0042,1.2073,0.0000,0.0042,0.180,0.009,12.040,0.000,85.550
9.051,1.2147,-0.0042,1.2147,0.0000,0.0042,0.180,0.009,12.040,0.000,85.550
9.101,1.2217,-0.0042,1.2217,0.0000,0.0042,0.180,0.009,12.040,0.000,85.550
9.144,1.2325,-0.0043,1.2325,0.0000,0.0043,0.180,0.009,12.040,0.000,85.550
9.188,1.2398,-0.0043,1.2398,0.0000,0.0043,0.180,0.009,12.040,0.000,85.550
9.249,1.2469,-0.0043,1.2469,0.0000,0.0043,0.180,0.010,12.040,0.000,85.550
9.289,1.2577,-0.0043,1.2577,0.0000,0.0043,0.180,0.010,12.060,0.000,86.660
9.351,1.2651,-0.0044,1.2651,0.0000,0.0044,0.180,0.010,12.060,0.000,86.660
9.401,1.2723,-0.0044,1.2723,0.0000,0.0044,0.180,0.010,12.040,0.000,85.550
9.446,1.2832,-0.0044,1.2832,0.0000,0.0044,0.180,0.011,12.060,0.000,86.660
9.490,1.2906,-0.0045,1.2906,0.0000,0.0045,0.180,0.011,12.040,0.000,85.550
9.547,1.2978,-0.0045,1.2978,0.0000,0.0045,0.180,0.011,12.040,0.000,85.550
9.591,1.3088,-0.0045,1.3088,0.0000,0.0045,0.180,0.011,12.040,0.000,85.550
9.649,1.3162,-0.0046,1.3162,0.0000,0.0046,0.180,0.010,12.040,0.000,85.550
9.702,1.3234,-0.0046,1.3234,0.0000,0.0046,0.180,0.010,12.040,0.000,85.550
9.743,1.3343,-0.0046,1.3343,0.0000,0.0046,0.180,0.010,12.060,0.000,86.660
9.801,1.3418,-0.0046,1.3418,0.0000,0.0046,0.180,0.011,12.040,0.000,85.550
9.845,1.3488,-0.0046,1.3488,0.0000,0.0046,0.180,0.011,12.060,0.000,86.660
9.889,1.3598,-0.0046,1.3598,0.0000,0.0046,0.180,0.011,12.060,0.000,86.660
9.949,1.3671,-0.0047,1.3671,0.0000,0.0047,0.180,0.011,12.060,0.000,86.660
9.993,1.3742,-0.0047,1.3742,0.0000,0.0047,0.180,0.011,12.040,0.000,85.550
10.040,1.3850,-0.0047,1.3850,0.0000,0.0047,0.180,0.011,12.060,0.000,86.660
10.102,1.3923,-0.0047,1.3923,0.0000,0.0047,0.180,0.011,12.040,0.000,85.550
10.144,1.4030,-0.0047,1.4030,0.0000,0.0047,0.180,0.011,12.060,0.000,86.660
10.201,1.4103,-0.0047,1.4103,0.0000,0.0047,0.175,0.010,12.040,0.000,85.550
10.250,1.4175,-0.0046,1.4175,0.0000,0.0046,0.164,0.009,12.040,0.000,85.550
10.292,1.4282,-0.0046,1.4282,0.0000,0.0046,0.164,0.009,12.060,0.000,86.660
10.353,1.4355,-0.0046,1.4355,0.0000,0.0046,0.159,0.009,12.060,0.000,86.660
10.402,1.4426,-0.0046,1.4426,0.0000,0.0046,0.159,0.009,12.040,0.000,85.550
10.444,1.4530,-0.0045,1.4530,0.0000,0.0045,0.159,0.009,12.060,0.000,86.660
10.493,1.4600,-0.0045,1.4600,0.0000,0.0045,0.148,0.009,12.040,0.000,85.550
10.550,1.4665,-0.0045,1.4665,0.0000,0.0045,0.139,0.011,12.040,0.000,85.550
10.591,1.4762,-0.0045,1.4762,0.0000,0.0045,0.139,0.011,12.060,0.000,86.660
10.655,1.4824,-0.0044,1.4824,0.0000,0.0044,0.135,0.011,12.020,0.000,84.440
10.701,1.4883,-0.0044,1.4883,0.0000,0.0044,0.135,0.011,12.040,0.000,85.550
10.745,1.4970,-0.0044,1.4970,0.0000,0.0044,0.126,0.011,12.040,0.000,85.550
10.791,1.5025,-0.0044,1.5025,0.0000,0.0044,0.126,0.011,12.040,0.000,85.550
10.848,1.5083,-0.0043,1.5083,0.0000,0.0043,0.119,0.010,12.040,0.000,85.550
10.890,1.5166,-0.0043,1.5166,0.0000,0.0043,0.119,0.010,12.040,0.000,85.550
10.950,1.5222,-0.0043,1.5222,0.0000,0.0043,0.115,0.010,12.040,0.000,85.550
11.015,1.5271,-0.0042,1.5271,0.0000,0.0042,0.115,0.010,12.040,0.000,85.550
11.043,1.5349,-0.0042,1.5349,0.0000,0.0042,0.115,0.010,12.040,0.000,85.550
11.092,1.5394,-0.0041,1.5394,0.0000,0.0041,0.107,0.010,12.060,0.000,86.660
11.145,1.5441,-0.0041,1.5441,0.0000,0.0041,0.101,0.010,12.040,0.000,85.550
11.189,1.5511,-0.0041,1.5511,0.0000,0.0041,0.101,0.010,12.060,0.000,86.660
11.247,1.5557,-0.0040,1.5557,0.0000,0.0040,0.098,0.010,12.060,0.000,86.660
11.301,1.5600,-0.0040,1.5600,0.0000,0.0040,0.098,0.010,12.040,0.000,85.550
11.337,1.5664,-0.0039,1.5664,0.0000,0.0039,0.098,0.010,12.060,0.000,86.660
11.391,1.5707,-0.0039,1.5707,0.0000,0.0039,0.091,0.011,12.040,0.000,85.550
11.445,1.5746,-0.0039,1.5746,0.0000,0.0039,0.086,0.011,12.060,0.000,86.660
11.491,1.5806,-0.0038,1.5806,0.0000,0.0038,0.086,0.011,12.040,0.000,85.550
11.550,1.5844,-0.0038,1.5844,0.0000,0.0038,0.081,0.010,12.060,0.000,86.660
11.594,1.5900,-0.0037,1.5900,0.0000,0.0037,0.081,0.010,12.060,0.000,86.660
11.655,1.5935,-0.0037,1.5935,0.0000,0.0037,0.079,0.010,12.040,0.000,85.550
11.716,1.5968,-0.0036,1.5968,0.0000,0.0036,0.079,0.010,12.060,0.000,86.660
11.741,1.6019,-0.0036,1.6019,0.0000,0.0036,0.079,0.010,12.060,0.000,86.660
11.801,1.6053,-0.0035,1.6053,0.0000,0.0035,0.075,0.009,12.060,0.000,86.660
11.852,1.6086,-0.0035,1.6086,0.0000,0.0035,0.070,0.008,12.060,0.000,86.660
11.892,1.6129,-0.0034,1.6129,0.0000,0.0034,0.070,0.008,12.060,0.000,86.660
11.951,1.6160,-0.0034,1.6160,0.0000,0.0034,0.068,0.008,12.060,0.000,86.660
12.020,1.6190,-0.0033,1.6190,0.0000,0.0033,0.068,0.008,12.060,0.000,86.660
12.040,1.6230,-0.0033,1.6230,0.0000,0.0033,0.068,0.008,12.060,0.000,86.660
12.091,1.6255,-0.0032,1.6255,0.0000,0.0032,0.063,0.008,12.060,0.000,86.660
12.148,1.6281,-0.0032,1.6281,0.0000,0.0032,0.060,0.009,12.060,0.000,86.660
12.189,1.6319,-0.0031,1.6319,0.0000,0.0031,0.060,0.009,12.080,0.000,87.770
12.251,1.6344,-0.0031,1.6344,0.0000,0.0031,0.058,0.009,12.060,0.000,86.660
12.302,1.6368,-0.0031,1.6368,0.0000,0.0031,0.058,0.009,12.060,0.000,86.660
12.342,1.6404,-0.0030,1.6404,0.0000,0.0030,0.058,0.009,12.080,0.000,87.770
12.391,1.6425,-0.0030,1.6425,0.0000,0.0030,0.055,0.009,12.080,0.000,87.770
12.448,1.6447,-0.0029,1.6447,0.0000,0.0029,0.052,0.009,12.080,0.000,87.770
12.491,1.6477,-0.0029,1.6477,0.0000,0.0029,0.052,0.009,12.060,0.000,86.660
12.549,1.6498,-0.0028,1.6498,0.0000,0.0028,0.050,0.010,12.080,0.000,87.770
12.594,1.6520,-0.0028,1.6520,0.0000,0.0028,0.050,0.010,12.080,0.000,87.770
12.639,1.6552,-0.0028,1.6552,0.0000,0.0028,0.050,0.010,12.080,0.000,87.770
12.701,1.6574,-0.0027,1.6574,0.0000,0.0027,0.048,0.010,12.060,0.000,86.660
12.764,1.6602,-0.0027,1.6602,0.0000,0.0027,0.045,0.011,12.060,0.000,86.660
12.810,1.6619,-0.0027,1.6619,0.0000,0.0027,0.045,0.011,12.080,0.000,87.770
12.853,1.6635,-0.0026,1.6635,0.0000,0.0026,0.043,0.011,12.080,0.000,87.770
12.893,1.6661,-0.0026,1.6661,0.0000,0.0026,0.043,0.011,12.080,0.000,87.770
12.955,1.6679,-0.0026,1.6679,0.0000,0.0026,0.041,0.011,12.080,0.000,87.770
13.017,1.6696,-0.0025,1.6696,0.0000,0.0025,0.041,0.011,12.080,0.000,87.770
13.054,1.6722,-0.0025,1.6722,0.0000,0.0025,0.039,0.012,12.060,0.000,86.660
13.103,1.6738,-0.0025,1.6738,0.0000,0.0025,0.039,0.012,12.080,0.000,87.770
13.159,1.6754,-0.0024,1.6754,0.0000,0.0024,0.037,0.011,12.080,0.000,87.770
13.190,1.6780,-0.0024,1.6780,0.0000,0.0024,0.037,0.011,12.080,0.000,87.770
13.251,1.6794,-0.0023,1.6794,0.0000,0.0023,0.036,0.011,12.080,0.000,87.770
