t,x,y,ref_x,ref_y,err,v,w,voltage,current,percentage
0.019,-0.0018,0.0442,0.0000,0.0442,0.0018,0.018,0.900,12.110,0.000,89.440
0.069,-0.0018,0.0442,0.0000,0.0442,0.0018,0.018,0.900,12.130,0.000,90.550
0.397,-0.0018,0.0442,0.0000,0.0442,0.0018,0.018,0.900,12.110,0.000,89.440
0.399,-0.0018,0.0442,0.0000,0.0442,0.0018,0.018,0.900,12.130,0.000,90.550
0.401,-0.0018,0.0442,0.0000,0.0442,0.0018,0.018,0.900,12.130,0.000,90.550
0.403,-0.0018,0.0442,0.0000,0.0442,0.0018,0.018,0.900,12.130,0.000,90.550
0.404,-0.0018,0.0442,0.0000,0.0442,0.0018,0.018,0.900,12.110,0.000,89.440
0.406,-0.0018,0.0442,0.0000,0.0442,0.0018,0.018,0.900,12.130,0.000,90.550
0.423,-0.0018,0.0442,0.0000,0.0442,0.0018,0.018,0.900,12.110,0.000,89.440
0.466,-0.0018,0.0442,0.0000,0.0442,0.0018,0.020,0.990,12.060,0.000,86.660
0.527,-0.0018,0.0439,0.0000,0.0439,0.0018,0.020,0.990,12.060,0.000,86.660
0.571,-0.0018,0.0436,0.0000,0.0436,0.0018,0.020,0.999,12.060,0.000,86.660
0.620,-0.0017,0.0427,0.0000,0.0427,0.0017,0.020,0.999,12.060,0.000,86.660
0.666,-0.0016,0.0423,0.0000,0.0423,0.0016,0.020,1.000,12.060,0.000,86.660
0.722,-0.0014,0.0418,0.0000,0.0418,0.0014,0.020,1.000,12.060,0.000,86.660
0.779,-0.0012,0.0411,0.0000,0.0411,0.0012,0.020,1.000,12.060,0.000,86.660
0.829,-0.0010,0.0405,0.0000,0.0405,0.0010,0.020,1.000,12.060,0.000,86.660
0.870,-0.0008,0.0399,0.0000,0.0399,0.0008,0.020,1.000,12.060,0.000,86.660
0.916,-0.0006,0.0394,0.0000,0.0394,0.0006,0.020,1.000,12.080,0.000,87.770
0.975,-0.0003,0.0389,0.0000,0.0389,0.0003,0.020,1.000,12.060,0.000,86.660
1.021,-0.0000,0.0384,0.0000,0.0384,0.0000,0.020,1.000,12.060,0.000,86.660
1.067,0.0002,0.0381,0.0000,0.0381,0.0002,0.020,1.000,12.060,0.000,86.660
1.127,0.0004,0.0377,0.0000,0.0377,0.0004,0.020,1.000,12.080,0.000,87.770
1.168,0.0008,0.0373,0.0000,0.0373,0.0008,0.020,1.000,12.060,0.000,86.660
1.216,0.0011,0.0369,0.0000,0.0369,0.0011,0.020,1.000,12.060,0.000,86.660
1.310,0.0015,0.0365,0.0000,0.0365,0.0015,0.020,1.000,12.060,0.000,86.660
1.320,0.0019,0.0361,0.0000,0.0361,0.0019,0.020,1.000,12.080,0.000,87.770
1.366,0.0022,0.0359,0.0000,0.0359,0.0022,0.020,1.000,12.060,0.000,86.660
1.425,0.0026,0.0356,0.0000,0.0356,0.0026,0.020,1.000,12.080,0.000,87.770
1.468,0.0030,0.0352,0.0000,0.0352,0.0030,0.020,1.000,12.060,0.000,86.660
1.527,0.0035,0.0350,0.0000,0.0350,0.0035,0.020,1.000,12.060,0.000,86.660
1.573,0.0038,0.0348,0.0000,0.0348,0.0038,0.020,0.858,12.040,0.000,85.550
1.619,0.0043,0.0345,0.0000,0.0345,0.0043,0.020,0.858,12.060,0.000,86.660
1.669,0.0047,0.0343,0.0000,0.0343,0.0047,0.020,0.699,12.060,0.000,86.660
1.725,0.0050,0.0342,0.0000,0.0342,0.0050,0.020,0.699,12.060,0.000,86.660
1.767,0.0054,0.0341,0.0000,0.0341,0.0054,0.148,0.558,12.060,0.000,86.660
1.825,0.0059,0.0339,0.0000,0.0339,0.0059,0.148,0.558,12.060,0.000,86.660
1.871,0.0063,0.0338,0.0000,0.0338,0.0063,0.174,0.369,12.080,0.000,87.770
1.923,0.0090,0.0332,0.0000,0.0332,0.0090,0.174,0.369,12.080,0.000,87.770
1.979,0.0143,0.0321,0.0000,0.0321,0.0143,0.179,0.298,12.080,0.000,87.770
2.027,0.0238,0.0303,0.0000,0.0303,0.0238,0.179,0.298,12.080,0.000,87.770
2.067,0.0309,0.0292,0.0309,0.0000,0.0292,0.180,0.264,12.080,0.000,87.770
2.125,0.0383,0.0281,0.0383,0.0000,0.0281,0.180,0.264,12.080,0.000,87.770
2.173,0.0491,0.0266,0.0491,0.0000,0.0266,0.180,0.239,12.080,0.000,87.770
2.231,0.0562,0.0257,0.0562,0.0000,0.0257,0.180,0.239,12.090,0.000,88.330
2.277,0.0634,0.0249,0.0634,0.0000,0.0249,0.180,0.104,12.080,0.000,87.770
2.323,0.0742,0.0239,0.0742,0.0000,0.0239,0.180,0.104,12.080,0.000,87.770
2.367,0.0814,0.0232,0.0814,0.0000,0.0232,0.180,0.066,12.080,0.000,87.770
2.427,0.0885,0.0227,0.0885,0.0000,0.0227,0.180,0.066,12.060,0.000,86.660
2.469,0.0994,0.0219,0.0994,0.0000,0.0219,0.180,0.051,12.060,0.000,86.660
2.529,0.1067,0.0213,0.1067,0.0000,0.0213,0.180,0.051,12.060,0.000,86.660
2.575,0.1139,0.0208,0.1139,0.0000,0.0208,0.180,0.045,12.060,0.000,86.660
2.621,0.1245,0.0201,0.1245,0.0000,0.0201,0.180,0.045,12.060,0.000,86.660
2.671,0.1319,0.0197,0.1319,0.0000,0.0197,0.180,0.042,12.060,0.000,86.660
2.726,0.1390,0.0192,0.1390,0.0000,0.0192,0.180,0.042,12.060,0.000,86.660
2.767,0.1498,0.0186,0.1498,0.0000,0.0186,0.180,0.039,12.060,0.000,86.660
2.827,0.1571,0.0181,0.1571,0.0000,0.0181,0.180,0.039,12.060,0.000,86.660
2.874,0.1641,0.0178,0.1641,0.0000,0.0178,0.180,0.036,12.060,0.000,86.660
2.918,0.1749,0.0172,0.1749,0.0000,0.0172,0.180,0.036,12.060,0.000,86.660
2.968,0.1823,0.0168,0.1823,0.0000,0.0168,0.180,0.033,12.060,0.000,86.660
3.032,0.1895,0.0164,0.1895,0.0000,0.0164,0.180,0.033,12.060,0.000,86.660
3.068,0.2004,0.0159,0.2004,0.0000,0.0159,0.180,0.030,12.060,0.000,86.660
3.127,0.2077,0.0156,0.2077,0.0000,0.0156,0.180,0.030,12.060,0.000,86.660
3.170,0.2150,0.0152,0.2150,0.0000,0.0152,0.180,0.027,12.060,0.000,86.660
3.224,0.2260,0.0148,0.2260,0.0000,0.0148,0.180,0.027,12.080,0.000,87.770
3.270,0.2332,0.0145,0.2332,0.0000,0.0145,0.180,0.026,12.060,0.000,86.660
3.326,0.2407,0.0142,0.2407,0.0000,0.0142,0.180,0.026,12.060,0.000,86.660
3.369,0.2517,0.0137,0.2517,0.0000,0.0137,0.180,0.025,12.080,0.000,87.770
3.428,0.2588,0.0134,0.2588,0.0000,0.0134,0.180,0.025,12.060,0.000,86.660
3.472,0.2662,0.0131,0.2662,0.0000,0.0131,0.180,0.026,12.060,0.000,86.660
3.520,0.2771,0.0127,0.2771,0.0000,0.0127,0.180,0.026,12.060,0.000,86.660
3.568,0.2841,0.0124,0.2841,0.0000,0.0124,0.180,0.026,12.080,0.000,87.770
3.622,0.2915,0.0121,0.2915,0.0000,0.0121,0.180,0.026,12.060,0.000,86.660
3.666,0.3024,0.0117,0.3024,0.0000,0.0117,0.180,0.025,12.060,0.000,86.660
3.724,0.3095,0.0114,0.3095,0.0000,0.0114,0.180,0.025,12.060,0.000,86.660
3.772,0.3168,0.0111,0.3168,0.0000,0.0111,0.180,0.025,12.060,0.000,86.660
3.819,0.3276,0.0107,0.3276,0.0000,0.0107,0.180,0.025,12.060,0.000,86.660
3.877,0.3348,0.0104,0.3348,0.0000,0.0104,0.180,0.025,12.080,0.000,87.770
3.925,0.3456,0.0100,0.3456,0.0000,0.0100,0.180,0.025,12.080,0.000,87.770
3.967,0.3529,0.0097,0.3529,0.0000,0.0097,0.180,0.024,12.060,0.000,86.660
4.027,0.3601,0.0094,0.3601,0.0000,0.0094,0.180,0.024,12.080,0.000,87.770
4.070,0.3709,0.0091,0.3709,0.0000,0.0091,0.180,0.023,12.060,0.000,86.660
4.120,0.3780,0.0088,0.3780,0.0000,0.0088,0.180,0.023,12.080,0.000,87.770
4.176,0.3853,0.0086,0.3853,0.0000,0.0086,0.180,0.022,12.080,0.000,87.770
4.222,0.3963,0.0082,0.3963,0.0000,0.0082,0.180,0.022,12.060,0.000,86.660
4.269,0.4033,0.0080,0.4033,0.0000,0.0080,0.180,0.020,12.060,0.000,86.660
4.326,0.4107,0.0078,0.4107,0.0000,0.0078,0.180,0.020,12.080,0.000,87.770
4.368,0.4217,0.0075,0.4217,0.0000,0.0075,0.180,0.018,12.060,0.000,86.660
4.427,0.4288,0.0073,0.4288,0.0000,0.0073,0.180,0.018,12.080,0.000,87.770
4.473,0.4362,0.0071,0.4362,0.0000,0.0071,0.180,0.017,12.080,0.000,87.770
4.518,0.4472,0.0068,0.4472,0.0000,0.0068,0.180,0.017,12.060,0.000,86.660
4.568,0.4543,0.0066,0.4543,0.0000,0.0066,0.180,0.018,12.060,0.000,86.660
4.624,0.4618,0.0064,0.4618,0.0000,0.0064,0.180,0.018,12.080,0.000,87.770
4.666,0.4727,0.0061,0.4727,0.0000,0.0061,0.180,0.018,12.060,0.000,86.660
4.727,0.4798,0.0059,0.4798,0.0000,0.0059,0.180,0.018,12.080,0.000,87.770
4.773,0.4872,0.0057,0.4872,0.0000,0.0057,0.180,0.019,12.080,0.000,87.770
4.835,0.4982,0.0054,0.4982,0.0000,0.0054,0.180,0.019,12.060,0.000,86.660
4.868,0.5051,0.0052,0.5051,0.0000,0.0052,0.180,0.020,12.080,0.000,87.770
4.924,0.5126,0.0049,0.5126,0.0000,0.0049,0.180,0.020,12.080,0.000,87.770
4.967,0.5235,0.0046,0.5235,0.0000,0.0046,0.180,0.020,12.080,0.000,87.770
5.024,0.5304,0.0044,0.5304,0.0000,0.0044,0.180,0.020,12.080,0.000,87.770
5.069,0.5379,0.0042,0.5379,0.0000,0.0042,0.180,0.020,12.080,0.000,87.770
5.115,0.5487,0.0039,0.5487,0.0000,0.0039,0.180,0.020,12.080,0.000,87.770
5.175,0.5554,0.0037,0.5554,0.0000,0.0037,0.180,0.020,12.060,0.000,86.660
5.230,0.5663,0.0034,0.5663,0.0000,0.0034,0.180,0.020,12.080,0.000,87.770
5.271,0.5735,0.0032,0.5735,0.0000,0.0032,0.180,0.020,12.080,0.000,87.770
5.328,0.5806,0.0030,0.5806,0.0000,0.0030,0.180,0.020,12.080,0.000,87.770
5.372,0.5916,0.0027,0.5916,0.0000,0.0027,0.180,0.019,12.060,0.000,86.660
5.428,0.5988,0.0026,0.5988,0.0000,0.0026,0.180,0.019,12.060,0.000,86.660
5.476,0.6061,0.0024,0.6061,0.0000,0.0024,0.180,0.017,12.080,0.000,87.770
5.519,0.6170,0.0022,0.6170,0.0000,0.0022,0.180,0.017,12.060,0.000,86.660
5.566,0.6242,0.0020,0.6242,0.0000,0.0020,0.180,0.016,12.080,0.000,87.770
5.624,0.6316,0.0018,0.6316,0.0000,0.0018,0.180,0.016,12.060,0.000,86.660
5.666,0.6425,0.0016,0.6425,0.0000,0.0016,0.180,0.015,12.080,0.000,87.770
5.726,0.6497,0.0015,0.6497,0.0000,0.0015,0.180,0.015,12.080,0.000,87.770
5.773,0.6571,0.0013,0.6571,0.0000,0.0013,0.180,0.015,12.080,0.000,87.770
5.819,0.6680,0.0011,0.6680,0.0000,0.0011,0.180,0.015,12.080,0.000,87.770
5.869,0.6752,0.0010,0.6752,0.0000,0.0010,0.180,0.016,12.060,0.000,86.660
5.925,0.6825,0.0008,0.6825,0.0000,0.0008,0.180,0.016,12.060,0.000,86.660
5.967,0.6935,0.0006,0.6935,0.0000,0.0006,0.180,0.017,12.080,0.000,87.770
6.025,0.7006,0.0004,0.7006,0.0000,0.0004,0.180,0.017,12.080,0.000,87.770
6.071,0.7080,0.0002,0.7080,0.0000,0.0002,0.180,0.017,12.080,0.000,87.770
6.119,0.7189,0.0000,0.7189,0.0000,0.0000,0.180,0.017,12.080,0.000,87.770
6.167,0.7260,-0.0001,0.7260,0.0000,0.0001,0.180,0.017,12.080,0.000,87.770
6.227,0.7334,-0.0003,0.7334,0.0000,0.0003,0.180,0.017,12.080,0.000,87.770
6.269,0.7442,-0.0005,0.7442,0.0000,0.0005,0.180,0.017,12.080,0.000,87.770
6.324,0.7514,-0.0007,0.7514,0.0000,0.0007,0.180,0.017,12.060,0.000,86.660
6.372,0.7586,-0.0008,0.7586,0.0000,0.0008,0.180,0.017,12.060,0.000,86.660
6.419,0.7695,-0.0010,0.7695,0.0000,0.0010,0.180,0.017,12.060,0.000,86.660
6.466,0.7767,-0.0012,0.7767,0.0000,0.0012,0.180,0.017,12.080,0.000,87.770
6.525,0.7840,-0.0013,0.7840,0.0000,0.0013,0.180,0.017,12.060,0.000,86.660
6.568,0.7947,-0.0015,0.7947,0.0000,0.0015,0.180,0.016,12.060,0.000,86.660
6.629,0.8020,-0.0017,0.8020,0.0000,0.0017,0.180,0.016,12.080,0.000,87.770
6.670,0.8129,-0.0018,0.8129,0.0000,0.0018,0.180,0.014,12.080,0.000,87.770
6.718,0.8202,-0.0020,0.8202,0.0000,0.0020,0.180,0.014,12.080,0.000,87.770
6.777,0.8275,-0.0021,0.8275,0.0000,0.0021,0.180,0.013,12.080,0.000,87.770
6.823,0.8384,-0.0022,0.8384,0.0000,0.0022,0.180,0.013,12.060,0.000,86.660
6.866,0.8456,-0.0023,0.8456,0.0000,0.0023,0.180,0.012,12.080,0.000,87.770
6.930,0.8529,-0.0024,0.8529,0.0000,0.0024,0.180,0.012,12.060,0.000,86.660
6.968,0.8638,-0.0025,0.8638,0.0000,0.0025,0.180,0.012,12.080,0.000,87.770
7.017,0.8712,-0.0026,0.8712,0.0000,0.0026,0.180,0.012,12.060,0.000,86.660
7.075,0.8784,-0.0027,0.8784,0.0000,0.0027,0.180,0.013,12.060,0.000,86.660
7.121,0.8893,-0.0028,0.8893,0.0000,0.0028,0.180,0.013,12.080,0.000,87.770
7.168,0.8967,-0.0029,0.8967,0.0000,0.0029,0.180,0.014,12.060,0.000,86.660
7.226,0.9039,-0.0030,0.9039,0.0000,0.0030,0.180,0.014,12.060,0.000,86.660
7.264,0.9148,-0.0032,0.9148,0.0000,0.0032,0.180,0.014,12.060,0.000,86.660
7.328,0.9221,-0.0033,0.9221,0.0000,0.0033,0.180,0.014,12.080,0.000,87.770
7.374,0.9293,-0.0034,0.9293,0.0000,0.0034,0.180,0.014,12.060,0.000,86.660
7.421,0.9402,-0.0035,0.9402,0.0000,0.0035,0.180,0.014,12.060,0.000,86.660
7.468,0.9475,-0.0036,0.9475,0.0000,0.0036,0.180,0.014,12.060,0.000,86.660
7.524,0.9546,-0.0037,0.9546,0.0000,0.0037,0.180,0.014,12.060,0.000,86.660
7.566,0.9654,-0.0039,0.9654,0.0000,0.0039,0.180,0.014,12.080,0.000,87.770
7.626,0.9727,-0.0040,0.9727,0.0000,0.0040,0.180,0.014,12.060,0.000,86.660
7.672,0.9798,-0.0040,0.9798,0.0000,0.0040,0.180,0.014,12.060,0.000,86.660
7.721,0.9908,-0.0042,0.9908,0.0000,0.0042,0.180,0.014,12.080,0.000,87.770
7.790,0.9980,-0.0043,0.9980,0.0000,0.0043,0.180,0.013,12.080,0.000,87.770
7.825,1.0052,-0.0043,1.0052,0.0000,0.0043,0.180,0.013,12.060,0.000,86.660
7.868,1.0161,-0.0044,1.0161,0.0000,0.0044,0.180,0.012,12.080,0.000,87.770
7.926,1.0235,-0.0045,1.0235,0.0000,0.0045,0.180,0.012,12.060,0.000,86.660
7.971,1.0306,-0.0045,1.0306,0.0000,0.0045,0.180,0.010,12.080,0.000,87.770
8.020,1.0416,-0.0046,1.0416,0.0000,0.0046,0.180,0.010,12.080,0.000,87.770
8.066,1.0490,-0.0046,1.0490,0.0000,0.0046,0.180,0.009,12.060,0.000,86.660
8.122,1.0560,-0.0047,1.0560,0.0000,0.0047,0.180,0.009,12.060,0.000,86.660
8.166,1.0670,-0.0047,1.0670,0.0000,0.0047,0.180,0.009,12.080,0.000,87.770
8.225,1.0745,-0.0047,1.0745,0.0000,0.0047,0.180,0.009,12.060,0.000,86.660
8.269,1.0815,-0.0048,1.0815,0.0000,0.0048,0.180,0.010,12.060,0.000,86.660
8.318,1.0925,-0.0048,1.0925,0.0000,0.0048,0.180,0.010,12.080,0.000,87.770
8.378,1.0998,-0.0049,1.0998,0.0000,0.0049,0.180,0.011,12.060,0.000,86.660
8.422,1.1106,-0.0050,1.1106,0.0000,0.0050,0.180,0.011,12.080,0.000,87.770
8.467,1.1179,-0.0050,1.1179,0.0000,0.0050,0.180,0.012,12.080,0.000,87.770
8.527,1.1252,-0.0051,1.1252,0.0000,0.0051,0.180,0.012,12.060,0.000,86.660
8.568,1.1359,-0.0052,1.1359,0.0000,0.0052,0.180,0.013,12.060,0.000,86.660
8.629,1.1432,-0.0052,1.1432,0.0000,0.0052,0.180,0.013,12.080,0.000,87.770
8.674,1.1505,-0.0053,1.1505,0.0000,0.0053,0.180,0.013,12.060,0.000,86.660
8.721,1.1611,-0.0054,1.1611,0.0000,0.0054,0.180,0.013,12.060,0.000,86.660
8.768,1.1684,-0.0054,1.1684,0.0000,0.0054,0.180,0.013,12.060,0.000,86.660
8.825,1.1757,-0.0055,1.1757,0.0000,0.0055,0.180,0.013,12.060,0.000,86.660
8.867,1.1864,-0.0055,1.1864,0.0000,0.0055,0.180,0.014,12.080,0.000,87.770
8.927,1.1937,-0.0056,1.1937,0.0000,0.0056,0.180,0.014,12.060,0.000,86.660
8.974,1.2009,-0.0056,1.2009,0.0000,0.0056,0.180,0.013,12.060,0.000,86.660
9.020,1.2117,-0.0057,1.2117,0.0000,0.0057,0.180,0.013,12.080,0.000,87.770
9.073,1.2192,-0.0057,1.2192,0.0000,0.0057,0.180,0.012,12.060,0.000,86.660
9.124,1.2263,-0.0057,1.2263,0.0000,0.0057,0.180,0.012,12.080,0.000,87.770
9.165,1.2372,-0.0057,1.2372,0.0000,0.0057,0.180,0.010,12.080,0.000,87.770
9.226,1.2446,-0.0058,1.2446,0.0000,0.0058,0.180,0.010,12.060,0.000,86.660
9.272,1.2517,-0.0058,1.2517,0.0000,0.0058,0.180,0.009,12.060,0.000,86.660
9.318,1.2626,-0.0058,1.2626,0.0000,0.0058,0.180,0.009,12.080,0.000,87.770
9.366,1.2701,-0.0057,1.2701,0.0000,0.0057,0.180,0.009,12.080,0.000,87.770
9.422,1.2772,-0.0057,1.2772,0.0000,0.0057,0.180,0.009,12.080,0.000,87.770
9.469,1.2880,-0.0058,1.2880,0.0000,0.0058,0.180,0.010,12.060,0.000,86.660
9.524,1.2955,-0.0058,1.2955,0.0000,0.0058,0.180,0.010,12.060,0.000,86.660
9.572,1.3025,-0.0058,1.3025,0.0000,0.0058,0.180,0.012,12.060,0.000,86.660
9.620,1.3134,-0.0058,1.3134,0.0000,0.0058,0.180,0.012,12.080,0.000,87.770
9.677,1.3209,-0.0058,1.3209,0.0000,0.0058,0.180,0.013,12.080,0.000,87.770
9.723,1.3318,-0.0059,1.3318,0.0000,0.0059,0.180,0.013,12.060,0.000,86.660
9.768,1.3389,-0.0059,1.3389,0.0000,0.0059,0.180,0.013,12.060,0.000,86.660
9.829,1.3463,-0.0059,1.3463,0.0000,0.0059,0.180,0.013,12.060,0.000,86.660
9.874,1.3571,-0.0059,1.3571,0.0000,0.0059,0.180,0.014,12.080,0.000,87.770
9.919,1.3642,-0.0059,1.3642,0.0000,0.0059,0.180,0.014,12.080,0.000,87.770
9.975,1.3715,-0.0059,1.3715,0.0000,0.0059,0.180,0.014,12.060,0.000,86.660
10.022,1.3822,-0.0060,1.3822,0.0000,0.0060,0.180,0.014,12.060,0.000,86.660
10.065,1.3894,-0.0060,1.3894,0.0000,0.0060,0.180,0.014,12.080,0.000,87.770
10.128,1.3967,-0.0060,1.3967,0.0000,0.0060,0.180,0.014,12.060,0.000,86.660
10.167,1.4074,-0.0060,1.4074,0.0000,0.0060,0.173,0.014,12.060,0.000,86.660
10.228,1.4148,-0.0060,1.4148,0.0000,0.0060,0.173,0.014,12.080,0.000,87.770
10.274,1.4221,-0.0060,1.4221,0.0000,0.0060,0.166,0.013,12.060,0.000,86.660
10.320,1.4328,-0.0059,1.4328,0.0000,0.0059,0.166,0.013,12.060,0.000,86.660
10.366,1.4403,-0.0059,1.4403,0.0000,0.0059,0.157,0.012,12.080,0.000,87.770
10.424,1.4474,-0.0059,1.4474,0.0000,0.0059,0.157,0.012,12.040,0.000,85.550
10.547,1.4577,-0.0058,1.4577,0.0000,0.0058,0.142,0.010,12.080,0.000,87.770
10.548,1.4646,-0.0057,1.4646,0.0000,0.0057,0.142,0.010,12.080,0.000,87.770
10.572,1.4708,-0.0057,1.4708,0.0000,0.0057,0.142,0.010,12.060,0.000,86.660
10.621,1.4804,-0.0056,1.4804,0.0000,0.0056,0.142,0.010,12.060,0.000,86.660
10.668,1.4869,-0.0055,1.4869,0.0000,0.0055,0.134,0.010,12.060,0.000,86.660
10.725,1.4932,-0.0055,1.4932,0.0000,0.0055,0.134,0.010,12.060,0.000,86.660
10.767,1.5025,-0.0054,1.5025,0.0000,0.0054,0.126,0.011,12.060,0.000,86.660
10.825,1.5081,-0.0054,1.5081,0.0000,0.0054,0.126,0.011,12.060,0.000,86.660
10.873,1.5141,-0.0053,1.5141,0.0000,0.0053,0.120,0.012,12.060,0.000,86.660
10.917,1.5220,-0.0053,1.5220,0.0000,0.0053,0.120,0.012,12.080,0.000,87.770
10.966,1.5274,-0.0052,1.5274,0.0000,0.0052,0.113,0.012,12.060,0.000,86.660
11.024,1.5323,-0.0052,1.5323,0.0000,0.0052,0.113,0.012,12.080,0.000,87.770
11.067,1.5396,-0.0051,1.5396,0.0000,0.0051,0.107,0.012,12.060,0.000,86.660
11.129,1.5442,-0.0051,1.5442,0.0000,0.0051,0.107,0.012,12.080,0.000,87.770
11.171,1.5513,-0.0050,1.5513,0.0000,0.0050,0.101,0.013,12.080,0.000,87.770
11.219,1.5557,-0.0050,1.5557,0.0000,0.0050,0.101,0.013,12.060,0.000,86.660
11.276,1.5600,-0.0049,1.5600,0.0000,0.0049,0.096,0.013,12.060,0.000,86.660
11.325,1.5665,-0.0049,1.5665,0.0000,0.0049,0.096,0.013,12.060,0.000,86.660
11.366,1.5706,-0.0048,1.5706,0.0000,0.0048,0.091,0.013,12.090,0.000,88.330
11.428,1.5749,-0.0048,1.5749,0.0000,0.0048,0.091,0.013,12.080,0.000,87.770
11.468,1.5806,-0.0047,1.5806,0.0000,0.0047,0.086,0.012,12.060,0.000,86.660
11.518,1.5845,-0.0047,1.5845,0.0000,0.0047,0.086,0.012,12.060,0.000,86.660
11.575,1.5884,-0.0046,1.5884,0.0000,0.0046,0.082,0.012,12.080,0.000,87.770
11.629,1.5938,-0.0045,1.5938,0.0000,0.0045,0.082,0.012,12.080,0.000,87.770
11.666,1.5973,-0.0045,1.5973,0.0000,0.0045,0.077,0.013,12.060,0.000,86.660
11.728,1.6007,-0.0044,1.6007,0.0000,0.0044,0.077,0.013,12.080,0.000,87.770
11.767,1.6057,-0.0044,1.6057,0.0000,0.0044,0.073,0.012,12.080,0.000,87.770
11.828,1.6091,-0.0043,1.6091,0.0000,0.0043,0.073,0.012,12.080,0.000,87.770
11.874,1.6123,-0.0043,1.6123,0.0000,0.0043,0.070,0.012,12.080,0.000,87.770
11.920,1.6167,-0.0042,1.6167,0.0000,0.0042,0.070,0.012,12.080,0.000,87.770
11.968,1.6197,-0.0041,1.6197,0.0000,0.0041,0.066,0.011,12.080,0.000,87.770
12.024,1.6227,-0.0041,1.6227,0.0000,0.0041,0.066,0.011,12.080,0.000,87.770
12.067,1.6266,-0.0040,1.6266,0.0000,0.0040,0.063,0.011,12.090,0.000,88.330
12.126,1.6292,-0.0040,1.6292,0.0000,0.0040,0.063,0.011,12.090,0.000,88.330
12.172,1.6318,-0.0039,1.6318,0.0000,0.0039,0.060,0.010,12.090,0.000,88.330
12.234,1.6356,-0.0038,1.6356,0.0000,0.0038,0.060,0.010,12.080,0.000,87.770
12.268,1.6382,-0.0038,1.6382,0.0000,0.0038,0.057,0.010,12.080,0.000,87.770
12.328,1.6407,-0.0037,1.6407,0.0000,0.0037,0.057,0.010,12.080,0.000,87.770
12.367,1.6441,-0.0036,1.6441,0.0000,0.0036,0.054,0.009,12.090,0.000,88.330
12.424,1.6462,-0.0036,1.6462,0.0000,0.0036,0.054,0.009,12.090,0.000,88.330
12.471,1.6484,-0.0035,1.6484,0.0000,0.0035,0.051,0.009,12.080,0.000,87.770
12.515,1.6515,-0.0035,1.6515,0.0000,0.0035,0.051,0.009,12.090,0.000,88.330
12.576,1.6537,-0.0034,1.6537,0.0000,0.0034,0.049,0.009,12.090,0.000,88.330
12.636,1.6569,-0.0033,1.6569,0.0000,0.0033,0.049,0.009,12.090,0.000,88.330
12.667,1.6590,-0.0033,1.6590,0.0000,0.0033,0.046,0.009,12.090,0.000,88.330
12.737,1.6611,-0.0032,1.6611,0.0000,0.0032,0.046,0.009,12.090,0.000,88.330
12.785,1.6639,-0.0032,1.6639,0.0000,0.0032,0.044,0.009,12.110,0.000,89.440
12.829,1.6657,-0.0031,1.6657,0.0000,0.0031,0.044,0.009,12.090,0.000,88.330
12.875,1.6674,-0.0031,1.6674,0.0000,0.0031,0.042,0.010,12.090,0.000,88.330
12.920,1.6699,-0.0030,1.6699,0.0000,0.0030,0.042,0.010,12.090,0.000,88.330
12.967,1.6716,-0.0030,1.6716,0.0000,0.0030,0.040,0.010,12.090,0.000,88.330
13.027,1.6734,-0.0029,1.6734,0.0000,0.0029,0.040,0.010,12.090,0.000,88.330
13.067,1.6758,-0.0029,1.6758,0.0000,0.0029,0.038,0.011,12.110,0.000,89.440
13.126,1.6773,-0.0028,1.6773,0.0000,0.0028,0.038,0.011,12.110,0.000,89.440
13.172,1.6787,-0.0028,1.6787,0.0000,0.0028,0.036,0.011,12.090,0.000,88.330
13.221,1.6806,-0.0027,1.6806,0.0000,0.0027,0.036,0.011,12.090,0.000,88.330
13.270,1.6818,-0.0027,1.6818,0.0000,0.0027,0.035,0.011,12.090,0.000,88.330
