t,x,y,ref_x,ref_y,err,v,w,voltage,current,percentage
0.056,0.0046,0.0475,0.0000,0.0475,0.0046,0.175,0.149,12.090,0.000,88.330
0.099,0.0046,0.0475,0.0000,0.0475,0.0046,0.175,0.137,12.040,0.000,85.550
0.144,0.0081,0.0472,0.0000,0.0472,0.0081,0.175,0.150,12.040,0.000,85.550
0.204,0.0144,0.0468,0.0000,0.0468,0.0144,0.175,0.150,12.040,0.000,85.550
0.251,0.0247,0.0461,0.0000,0.0461,0.0247,0.175,0.145,12.040,0.000,85.550
0.291,0.0320,0.0457,0.0000,0.0457,0.0320,0.176,0.130,12.040,0.000,85.550
0.351,0.0392,0.0453,0.0000,0.0453,0.0392,0.176,0.114,12.060,0.000,86.660
0.398,0.0463,0.0449,0.0463,0.0000,0.0449,0.177,-0.033,12.060,0.000,86.660
0.441,0.0572,0.0444,0.0572,0.0000,0.0444,0.177,0.086,12.040,0.000,85.550
0.499,0.0645,0.0440,0.0645,0.0000,0.0440,0.178,-0.024,12.040,0.000,85.550
0.550,0.0716,0.0437,0.0716,0.0000,0.0437,0.178,-0.044,12.060,0.000,86.660
0.600,0.0826,0.0433,0.0826,0.0000,0.0433,0.179,-0.001,12.040,0.000,85.550
0.657,0.0896,0.0430,0.0896,0.0000,0.0430,0.179,-0.057,12.020,0.000,84.440
0.694,0.1004,0.0427,0.1004,0.0000,0.0427,0.179,0.041,12.040,0.000,85.550
0.752,0.1073,0.0424,0.1073,0.0000,0.0424,0.179,0.039,12.040,0.000,85.550
0.798,0.1147,0.0422,0.1147,0.0000,0.0422,0.179,0.039,12.040,0.000,85.550
0.843,0.1251,0.0418,0.1251,0.0000,0.0418,0.179,0.038,12.040,0.000,85.550
0.901,0.1324,0.0416,0.1324,0.0000,0.0416,0.179,0.036,12.040,0.000,85.550
0.950,0.1397,0.0414,0.1397,0.0000,0.0414,0.179,-0.009,12.040,0.000,85.550
1.004,0.1506,0.0410,0.1506,0.0000,0.0410,0.179,0.029,12.060,0.000,86.660
1.055,0.1580,0.0408,0.1580,0.0000,0.0408,0.180,0.025,12.040,0.000,85.550
1.098,0.1653,0.0406,0.1653,0.0000,0.0406,0.180,-0.035,12.040,0.000,85.550
1.143,0.1764,0.0403,0.1764,0.0000,0.0403,0.180,0.015,12.040,0.000,85.550
1.200,0.1838,0.0401,0.1838,0.0000,0.0401,0.180,-0.018,12.040,0.000,85.550
1.249,0.1911,0.0399,0.1911,0.0000,0.0399,0.180,-0.011,12.040,0.000,85.550
1.292,0.2020,0.0397,0.2020,0.0000,0.0397,0.180,0.007,12.040,0.000,85.550
1.354,0.2093,0.0395,0.2093,0.0000,0.0395,0.180,0.005,12.040,0.000,85.550
1.402,0.2165,0.0393,0.2165,0.0000,0.0393,0.180,0.006,12.040,0.000,85.550
1.458,0.2275,0.0390,0.2275,0.0000,0.0390,0.180,0.011,12.060,0.000,86.660
1.501,0.2347,0.0389,0.2347,0.0000,0.0389,0.180,0.008,12.040,0.000,85.550
1.550,0.2419,0.0387,0.2419,0.0000,0.0387,0.180,-0.005,12.040,0.000,85.550
1.592,0.2527,0.0384,0.2527,0.0000,0.0384,0.180,0.006,12.040,0.000,85.550
1.656,0.2600,0.0382,0.2600,0.0000,0.0382,0.180,-0.005,12.060,0.000,86.660
1.698,0.2672,0.0381,0.2672,0.0000,0.0381,0.180,-0.002,12.080,0.000,87.770
1.744,0.2780,0.0378,0.2780,0.0000,0.0378,0.180,0.003,12.040,0.000,85.550
1.804,0.2854,0.0376,0.2854,0.0000,0.0376,0.180,0.002,12.040,0.000,85.550
1.854,0.2926,0.0375,0.2926,0.0000,0.0375,0.180,0.002,12.040,0.000,85.550
1.892,0.3034,0.0372,0.3034,0.0000,0.0372,0.180,0.005,12.040,0.000,85.550
1.956,0.3108,0.0370,0.3108,0.0000,0.0370,0.180,0.014,12.060,0.000,86.660
2.004,0.3218,0.0368,0.3218,0.0000,0.0368,0.180,0.005,12.040,0.000,85.550
2.061,0.3289,0.0366,0.3289,0.0000,0.0366,0.180,0.008,12.040,0.000,85.550
2.104,0.3363,0.0364,0.3363,0.0000,0.0364,0.180,0.008,12.040,0.000,85.550
2.147,0.3435,0.0362,0.3435,0.0000,0.0362,0.180,0.006,12.040,0.000,85.550
2.195,0.3541,0.0359,0.3541,0.0000,0.0359,0.180,0.010,12.040,0.000,85.550
2.279,0.3614,0.0358,0.3614,0.0000,0.0358,0.180,0.004,12.040,0.000,85.550
2.301,0.3723,0.0355,0.3723,0.0000,0.0355,0.180,0.008,12.040,0.000,85.550
2.359,0.3797,0.0353,0.3797,0.0000,0.0353,0.180,-0.011,12.040,0.000,85.550
2.401,0.3870,0.0351,0.3870,0.0000,0.0351,0.180,0.006,12.040,0.000,85.550
2.464,0.3944,0.0349,0.3944,0.0000,0.0349,0.180,0.007,12.040,0.000,85.550
2.492,0.4054,0.0346,0.4054,0.0000,0.0346,0.180,0.008,12.040,0.000,85.550
2.552,0.4127,0.0345,0.4127,0.0000,0.0345,0.180,0.006,12.040,0.000,85.550
2.597,0.4200,0.0343,0.4200,0.0000,0.0343,0.180,0.014,12.040,0.000,85.550
2.643,0.4309,0.0340,0.4309,0.0000,0.0340,0.180,0.008,12.060,0.000,86.660
2.691,0.4381,0.0338,0.4381,0.0000,0.0338,0.180,0.008,12.060,0.000,86.660
2.749,0.4453,0.0336,0.4453,0.0000,0.0336,0.180,0.002,12.060,0.000,86.660
2.791,0.4562,0.0334,0.4562,0.0000,0.0334,0.180,0.008,12.060,0.000,86.660
2.852,0.4633,0.0332,0.4633,0.0000,0.0332,0.180,0.007,12.060,0.000,86.660
2.896,0.4705,0.0330,0.4705,0.0000,0.0330,0.180,-0.016,12.060,0.000,86.660
2.946,0.4814,0.0327,0.4814,0.0000,0.0327,0.180,-0.002,12.060,0.000,86.660
3.002,0.4886,0.0326,0.4886,0.0000,0.0326,0.180,0.003,12.060,0.000,86.660
3.051,0.4959,0.0324,0.4959,0.0000,0.0324,0.180,0.003,12.060,0.000,86.660
3.094,0.5064,0.0321,0.5064,0.0000,0.0321,0.180,0.003,12.040,0.000,85.550
3.154,0.5136,0.0320,0.5136,0.0000,0.0320,0.180,0.006,12.040,0.000,85.550
3.192,0.5242,0.0317,0.5242,0.0000,0.0317,0.180,0.007,12.040,0.000,85.550
3.256,0.5311,0.0315,0.5311,0.0000,0.0315,0.180,0.015,12.040,0.000,85.550
3.295,0.5416,0.0313,0.5416,0.0000,0.0313,0.180,0.008,12.040,0.000,85.550
3.356,0.5489,0.0311,0.5489,0.0000,0.0311,0.180,0.004,12.040,0.000,85.550
3.400,0.5562,0.0309,0.5562,0.0000,0.0309,0.180,-0.002,12.040,0.000,85.550
3.444,0.5667,0.0306,0.5667,0.0000,0.0306,0.180,0.008,12.040,0.000,85.550
3.502,0.5737,0.0304,0.5737,0.0000,0.0304,0.180,0.008,12.060,0.000,86.660
3.560,0.5811,0.0302,0.5811,0.0000,0.0302,0.180,0.001,12.040,0.000,85.550
3.597,0.5921,0.0300,0.5921,0.0000,0.0300,0.180,0.010,12.040,0.000,85.550
3.657,0.5994,0.0298,0.5994,0.0000,0.0298,0.180,-0.006,12.040,0.000,85.550
3.697,0.6067,0.0296,0.6067,0.0000,0.0296,0.180,0.024,12.040,0.000,85.550
3.758,0.6177,0.0293,0.6177,0.0000,0.0293,0.180,0.022,12.040,0.000,85.550
3.802,0.6246,0.0292,0.6246,0.0000,0.0292,0.180,0.008,12.040,0.000,85.550
3.847,0.6355,0.0289,0.6355,0.0000,0.0289,0.180,0.020,12.020,0.000,84.440
3.895,0.6428,0.0287,0.6428,0.0000,0.0287,0.180,0.009,12.040,0.000,85.550
3.969,0.6496,0.0285,0.6496,0.0000,0.0285,0.180,0.002,12.040,0.000,85.550
3.992,0.6605,0.0282,0.6605,0.0000,0.0282,0.180,0.008,12.040,0.000,85.550
