t,x,y,ref_x,ref_y,err,v,w,voltage,current,percentage
0.048,0.0000,-0.0000,0.0000,0.0000,0.0000,0.177,0.089,11.950,0.000,80.550
0.118,0.0000,-0.0000,0.0000,0.0000,0.0000,0.177,0.063,11.870,0.000,76.110
0.141,0.0030,-0.0001,0.0030,0.0000,0.0001,0.177,0.082,11.870,0.000,76.110
0.190,0.0092,-0.0003,0.0092,0.0000,0.0003,0.176,0.303,11.890,0.000,77.220
0.235,0.0199,-0.0006,0.0199,0.0000,0.0006,0.176,0.118,11.890,0.000,77.220
0.281,0.0273,-0.0008,0.0273,0.0000,0.0008,0.177,0.107,11.910,0.000,78.330
0.325,0.0348,-0.0010,0.0348,0.0000,0.0010,0.177,0.097,11.910,0.000,78.330
0.399,0.0419,-0.0011,0.0419,0.0000,0.0011,0.178,-0.033,11.890,0.000,77.220
0.425,0.0528,-0.0013,0.0528,0.0000,0.0013,0.178,0.058,11.890,0.000,77.220
0.487,0.0601,-0.0015,0.0601,0.0000,0.0015,0.178,0.008,11.910,0.000,78.330
0.537,0.0673,-0.0016,0.0673,0.0000,0.0016,0.178,-0.013,11.890,0.000,77.220
0.581,0.0780,-0.0017,0.0780,0.0000,0.0017,0.178,0.059,11.890,0.000,77.220
0.627,0.0854,-0.0018,0.0854,0.0000,0.0018,0.179,-0.012,11.910,0.000,78.330
0.685,0.0925,-0.0019,0.0925,0.0000,0.0019,0.179,0.046,11.870,0.000,76.110
0.730,0.1033,-0.0020,0.1033,0.0000,0.0020,0.179,0.031,11.890,0.000,77.220
0.788,0.1108,-0.0020,0.1108,0.0000,0.0020,0.179,0.026,11.890,0.000,77.220
0.832,0.1178,-0.0021,0.1178,0.0000,0.0021,0.179,0.039,11.870,0.000,76.110
0.876,0.1284,-0.0022,0.1284,0.0000,0.0022,0.179,-0.008,11.870,0.000,76.110
0.936,0.1354,-0.0022,0.1354,0.0000,0.0022,0.179,0.028,11.890,0.000,77.220
0.984,0.1463,-0.0023,0.1463,0.0000,0.0023,0.179,0.032,11.870,0.000,76.110
1.038,0.1536,-0.0023,0.1536,0.0000,0.0023,0.179,0.013,11.870,0.000,76.110
1.098,0.1608,-0.0023,0.1608,0.0000,0.0023,0.179,-0.002,11.870,0.000,76.110
1.126,0.1713,-0.0024,0.1713,0.0000,0.0024,0.179,0.005,11.850,0.000,75.000
1.192,0.1786,-0.0024,0.1786,0.0000,0.0024,0.179,0.026,11.890,0.000,77.220
1.232,0.1897,-0.0024,0.1897,0.0000,0.0024,0.180,0.020,11.890,0.000,77.220
1.291,0.1967,-0.0024,0.1967,0.0000,0.0024,0.180,0.018,11.870,0.000,76.110
1.340,0.2040,-0.0024,0.2040,0.0000,0.0024,0.180,-0.002,11.890,0.000,77.220
1.401,0.2150,-0.0024,0.2150,0.0000,0.0024,0.180,0.015,11.890,0.000,77.220
1.441,0.2224,-0.0024,0.2224,0.0000,0.0024,0.180,0.017,11.890,0.000,77.220
1.499,0.2297,-0.0025,0.2297,0.0000,0.0025,0.180,0.031,11.890,0.000,77.220
1.535,0.2406,-0.0025,0.2406,0.0000,0.0025,0.180,0.020,11.890,0.000,77.220
1.578,0.2479,-0.0025,0.2479,0.0000,0.0025,0.180,0.016,11.890,0.000,77.220
1.637,0.2552,-0.0025,0.2552,0.0000,0.0025,0.180,0.006,11.890,0.000,77.220
1.685,0.2661,-0.0025,0.2661,0.0000,0.0025,0.180,0.005,11.870,0.000,76.110
1.729,0.2734,-0.0025,0.2734,0.0000,0.0025,0.180,0.010,11.870,0.000,76.110
1.791,0.2807,-0.0025,0.2807,0.0000,0.0025,0.180,0.018,11.870,0.000,76.110
1.836,0.2914,-0.0025,0.2914,0.0000,0.0025,0.180,0.030,11.910,0.000,78.330
1.879,0.2987,-0.0025,0.2987,0.0000,0.0025,0.180,0.013,11.890,0.000,77.220
1.938,0.3060,-0.0025,0.3060,0.0000,0.0025,0.180,-0.002,11.890,0.000,77.220
1.998,0.3167,-0.0025,0.3167,0.0000,0.0025,0.180,0.046,11.910,0.000,78.330
2.030,0.3241,-0.0025,0.3241,0.0000,0.0025,0.180,-0.001,11.890,0.000,77.220
2.094,0.3313,-0.0025,0.3313,0.0000,0.0025,0.180,0.016,11.890,0.000,77.220
2.135,0.3422,-0.0026,0.3422,0.0000,0.0026,0.180,0.019,11.910,0.000,78.330
2.189,0.3496,-0.0026,0.3496,0.0000,0.0026,0.180,0.009,11.890,0.000,77.220
2.236,0.3565,-0.0026,0.3565,0.0000,0.0026,0.180,-0.002,11.890,0.000,77.220
2.283,0.3675,-0.0026,0.3675,0.0000,0.0026,0.180,0.020,11.890,0.000,77.220
2.339,0.3750,-0.0026,0.3750,0.0000,0.0026,0.180,-0.006,11.870,0.000,76.110
2.391,0.3821,-0.0026,0.3821,0.0000,0.0026,0.180,0.017,11.890,0.000,77.220
2.430,0.3933,-0.0026,0.3933,0.0000,0.0026,0.180,0.017,11.890,0.000,77.220
2.488,0.4003,-0.0026,0.4003,0.0000,0.0026,0.180,0.000,11.870,0.000,76.110
2.538,0.4075,-0.0026,0.4075,0.0000,0.0026,0.180,0.016,11.870,0.000,76.110
2.578,0.4182,-0.0026,0.4182,0.0000,0.0026,0.180,0.036,11.870,0.000,76.110
2.636,0.4256,-0.0026,0.4256,0.0000,0.0026,0.180,0.026,11.870,0.000,76.110
2.686,0.4328,-0.0026,0.4328,0.0000,0.0026,0.180,0.052,11.890,0.000,77.220
2.725,0.4439,-0.0027,0.4439,0.0000,0.0027,0.180,0.023,11.890,0.000,77.220
2.789,0.4512,-0.0027,0.4512,0.0000,0.0027,0.179,0.035,11.870,0.000,76.110
2.834,0.4583,-0.0027,0.4583,0.0000,0.0027,0.179,0.028,11.870,0.000,76.110
2.881,0.4693,-0.0027,0.4693,0.0000,0.0027,0.179,0.026,11.910,0.000,78.330
2.936,0.4766,-0.0027,0.4766,0.0000,0.0027,0.180,0.002,11.850,0.000,75.000
2.990,0.4838,-0.0027,0.4838,0.0000,0.0027,0.180,0.002,11.870,0.000,76.110
3.030,0.4948,-0.0028,0.4948,0.0000,0.0028,0.180,0.013,11.910,0.000,78.330
3.106,0.5020,-0.0028,0.5020,0.0000,0.0028,0.180,-0.005,11.870,0.000,76.110
3.136,0.5092,-0.0027,0.5092,0.0000,0.0027,0.180,0.007,11.870,0.000,76.110
3.192,0.5197,-0.0027,0.5197,0.0000,0.0027,0.180,0.017,11.890,0.000,77.220
3.270,0.5268,-0.0027,0.5268,0.0000,0.0027,0.180,0.017,11.850,0.000,75.000
3.281,0.5377,-0.0027,0.5377,0.0000,0.0027,0.180,0.010,11.890,0.000,77.220
3.327,0.5451,-0.0027,0.5451,0.0000,0.0027,0.180,0.043,11.890,0.000,77.220
3.391,0.5523,-0.0027,0.5523,0.0000,0.0027,0.180,0.020,11.870,0.000,76.110
3.432,0.5633,-0.0027,0.5633,0.0000,0.0027,0.180,0.020,11.890,0.000,77.220
3.491,0.5708,-0.0027,0.5708,0.0000,0.0027,0.180,0.020,11.890,0.000,77.220
3.539,0.5780,-0.0027,0.5780,0.0000,0.0027,0.180,-0.001,11.870,0.000,76.110
3.583,0.5891,-0.0027,0.5891,0.0000,0.0027,0.180,0.018,11.890,0.000,77.220
3.639,0.5962,-0.0027,0.5962,0.0000,0.0027,0.180,-0.004,11.890,0.000,77.220
3.694,0.6034,-0.0027,0.6034,0.0000,0.0027,0.180,0.015,11.870,0.000,76.110
3.735,0.6144,-0.0027,0.6144,0.0000,0.0027,0.180,0.014,11.910,0.000,78.330
3.778,0.6219,-0.0027,0.6219,0.0000,0.0027,0.180,0.038,11.870,0.000,76.110
3.838,0.6291,-0.0027,0.6291,0.0000,0.0027,0.180,0.013,11.890,0.000,77.220
3.884,0.6402,-0.0027,0.6402,0.0000,0.0027,0.180,0.017,11.890,0.000,77.220
3.968,0.6475,-0.0027,0.6475,0.0000,0.0027,0.180,0.043,11.870,0.000,76.110
3.992,0.6547,-0.0027,0.6547,0.0000,0.0027,0.180,0.019,11.890,0.000,77.220
4.036,0.6656,-0.0027,0.6656,0.0000,0.0027,0.180,0.028,11.890,0.000,77.220
4.079,0.6730,-0.0027,0.6730,0.0000,0.0027,0.180,0.039,11.890,0.000,77.220
4.136,0.6802,-0.0027,0.6802,0.0000,0.0027,0.180,-0.009,11.870,0.000,76.110
4.181,0.6907,-0.0027,0.6907,0.0000,0.0027,0.180,0.021,11.890,0.000,77.220
4.238,0.6980,-0.0027,0.6980,0.0000,0.0027,0.180,-0.004,11.890,0.000,77.220
4.286,0.7052,-0.0026,0.7052,0.0000,0.0026,0.180,-0.011,11.870,0.000,76.110
4.332,0.7160,-0.0026,0.7160,0.0000,0.0026,0.180,0.012,11.890,0.000,77.220
4.388,0.7234,-0.0026,0.7234,0.0000,0.0026,0.180,0.018,11.870,0.000,76.110
4.435,0.7306,-0.0026,0.7306,0.0000,0.0026,0.180,0.012,11.890,0.000,77.220
4.526,0.7414,-0.0025,0.7414,0.0000,0.0025,0.180,0.034,11.890,0.000,77.220
4.528,0.7487,-0.0025,0.7487,0.0000,0.0025,0.180,0.034,11.890,0.000,77.220
4.606,0.7559,-0.0025,0.7559,0.0000,0.0025,0.180,0.017,11.870,0.000,76.110
4.642,0.7666,-0.0025,0.7666,0.0000,0.0025,0.180,0.013,11.870,0.000,76.110
4.692,0.7740,-0.0025,0.7740,0.0000,0.0025,0.180,0.014,11.870,0.000,76.110
4.733,0.7812,-0.0025,0.7812,0.0000,0.0025,0.180,0.014,11.870,0.000,76.110
4.792,0.7919,-0.0024,0.7919,0.0000,0.0024,0.180,0.013,11.870,0.000,76.110
4.835,0.7989,-0.0024,0.7989,0.0000,0.0024,0.180,0.012,11.870,0.000,76.110
4.883,0.8096,-0.0024,0.8096,0.0000,0.0024,0.180,0.012,11.870,0.000,76.110
4.926,0.8169,-0.0024,0.8169,0.0000,0.0024,0.180,0.016,11.870,0.000,76.110
4.999,0.8243,-0.0024,0.8243,0.0000,0.0024,0.180,0.025,11.890,0.000,77.220
5.027,0.8348,-0.0023,0.8348,0.0000,0.0023,0.180,0.011,11.870,0.000,76.110
5.090,0.8422,-0.0023,0.8422,0.0000,0.0023,0.180,0.017,11.870,0.000,76.110
5.141,0.8495,-0.0023,0.8495,0.0000,0.0023,0.180,0.013,11.870,0.000,76.110
5.192,0.8604,-0.0023,0.8604,0.0000,0.0023,0.180,0.016,11.870,0.000,76.110
5.324,0.8672,-0.0023,0.8672,0.0000,0.0023,0.180,0.016,11.870,0.000,76.110
5.325,0.8781,-0.0023,0.8781,0.0000,0.0023,0.180,0.016,11.870,0.000,76.110
5.347,0.8853,-0.0023,0.8853,0.0000,0.0023,0.180,0.003,11.870,0.000,76.110
5.414,0.8926,-0.0022,0.8926,0.0000,0.0022,0.180,0.018,11.870,0.000,76.110
5.444,0.9032,-0.0022,0.9032,0.0000,0.0022,0.180,0.016,11.890,0.000,77.220
5.543,0.9104,-0.0022,0.9104,0.0000,0.0022,0.180,0.016,11.890,0.000,77.220
5.551,0.9172,-0.0022,0.9172,0.0000,0.0022,0.180,-0.006,11.890,0.000,77.220
5.582,0.9281,-0.0022,0.9281,0.0000,0.0022,0.180,0.012,11.870,0.000,76.110
5.648,0.9353,-0.0021,0.9353,0.0000,0.0021,0.180,0.005,11.870,0.000,76.110
5.685,0.9425,-0.0021,0.9425,0.0000,0.0021,0.180,0.010,11.890,0.000,77.220
5.730,0.9535,-0.0021,0.9535,0.0000,0.0021,0.180,0.005,11.870,0.000,76.110
5.791,0.9606,-0.0021,0.9606,0.0000,0.0021,0.180,0.010,11.870,0.000,76.110
5.834,0.9680,-0.0020,0.9680,0.0000,0.0020,0.180,0.010,11.890,0.000,77.220
5.882,0.9790,-0.0020,0.9790,0.0000,0.0020,0.180,0.011,11.870,0.000,76.110
5.936,0.9863,-0.0020,0.9863,0.0000,0.0020,0.180,0.018,11.870,0.000,76.110
5.989,0.9937,-0.0020,0.9937,0.0000,0.0020,0.180,0.002,11.910,0.000,78.330
6.029,1.0048,-0.0019,1.0048,0.0000,0.0019,0.180,-0.006,11.870,0.000,76.110
6.090,1.0121,-0.0019,1.0121,0.0000,0.0019,0.180,0.005,11.870,0.000,76.110
6.132,1.0196,-0.0019,1.0196,0.0000,0.0019,0.180,0.009,11.910,0.000,78.330
6.181,1.0305,-0.0018,1.0305,0.0000,0.0018,0.180,0.009,11.870,0.000,76.110
6.236,1.0377,-0.0018,1.0377,0.0000,0.0018,0.180,0.038,11.870,0.000,76.110
6.285,1.0451,-0.0018,1.0451,0.0000,0.0018,0.180,0.052,11.890,0.000,77.220
6.330,1.0561,-0.0018,1.0561,0.0000,0.0018,0.180,0.034,11.890,0.000,77.220
6.390,1.0633,-0.0018,1.0633,0.0000,0.0018,0.180,0.047,11.870,0.000,76.110
6.441,1.0706,-0.0018,1.0706,0.0000,0.0018,0.180,0.019,11.910,0.000,78.330
6.484,1.0815,-0.0018,1.0815,0.0000,0.0018,0.180,0.020,11.870,0.000,76.110
6.542,1.0887,-0.0018,1.0887,0.0000,0.0018,0.180,0.018,11.870,0.000,76.110
6.602,1.0960,-0.0017,1.0960,0.0000,0.0017,0.180,0.019,11.890,0.000,77.220
6.634,1.1070,-0.0017,1.1070,0.0000,0.0017,0.180,0.018,11.870,0.000,76.110
6.689,1.1141,-0.0017,1.1141,0.0000,0.0017,0.180,0.005,11.870,0.000,76.110
6.736,1.1215,-0.0017,1.1215,0.0000,0.0017,0.180,-0.003,11.870,0.000,76.110
6.782,1.1322,-0.0017,1.1322,0.0000,0.0017,0.180,0.013,11.870,0.000,76.110
6.858,1.1394,-0.0017,1.1394,0.0000,0.0017,0.180,0.018,11.870,0.000,76.110
6.896,1.1466,-0.0016,1.1466,0.0000,0.0016,0.180,0.013,11.890,0.000,77.220
6.931,1.1574,-0.0016,1.1574,0.0000,0.0016,0.180,0.012,11.870,0.000,76.110
7.024,1.1645,-0.0016,1.1645,0.0000,0.0016,0.180,0.010,11.870,0.000,76.110
7.029,1.1752,-0.0015,1.1752,0.0000,0.0015,0.180,0.028,11.870,0.000,76.110
7.077,1.1825,-0.0015,1.1825,0.0000,0.0015,0.180,0.007,11.870,0.000,76.110
7.125,1.1899,-0.0015,1.1899,0.0000,0.0015,0.180,0.011,11.890,0.000,77.220
7.185,1.1974,-0.0015,1.1974,0.0000,0.0015,0.180,0.014,11.890,0.000,77.220
7.229,1.2084,-0.0015,1.2084,0.0000,0.0015,0.180,-0.018,11.890,0.000,77.220
7.288,1.2157,-0.0014,1.2157,0.0000,0.0014,0.180,0.019,11.890,0.000,77.220
7.335,1.2232,-0.0014,1.2232,0.0000,0.0014,0.180,0.012,11.890,0.000,77.220
7.382,1.2342,-0.0014,1.2342,0.0000,0.0014,0.180,0.013,11.870,0.000,76.110
7.436,1.2415,-0.0014,1.2415,0.0000,0.0014,0.180,0.043,11.910,0.000,78.330
7.487,1.2490,-0.0014,1.2490,0.0000,0.0014,0.180,0.026,11.890,0.000,77.220
7.529,1.2598,-0.0014,1.2598,0.0000,0.0014,0.176,0.026,11.870,0.000,76.110
7.592,1.2667,-0.0014,1.2667,0.0000,0.0014,0.176,0.018,11.910,0.000,78.330
7.631,1.2776,-0.0013,1.2776,0.0000,0.0013,0.174,0.020,11.870,0.000,76.110
7.681,1.2848,-0.0013,1.2848,0.0000,0.0013,0.170,0.021,11.890,0.000,77.220
7.741,1.2921,-0.0013,1.2921,0.0000,0.0013,0.167,0.022,11.890,0.000,77.220
7.822,1.3027,-0.0013,1.3027,0.0000,0.0013,0.165,0.023,11.850,0.000,75.000
7.835,1.3094,-0.0013,1.3094,0.0000,0.0013,0.158,0.002,11.870,0.000,76.110
7.889,1.3163,-0.0013,1.3163,0.0000,0.0013,0.156,-0.001,11.890,0.000,77.220
7.935,1.3266,-0.0013,1.3266,0.0000,0.0013,0.152,-0.010,11.850,0.000,75.000
7.988,1.3330,-0.0013,1.3330,0.0000,0.0013,0.150,0.008,11.870,0.000,76.110
8.037,1.3395,-0.0013,1.3395,0.0000,0.0013,0.148,0.018,11.850,0.000,75.000
8.084,1.3485,-0.0012,1.3485,0.0000,0.0012,0.148,0.014,11.850,0.000,75.000
8.138,1.3549,-0.0012,1.3549,0.0000,0.0012,0.142,0.015,11.850,0.000,75.000
8.186,1.3611,-0.0012,1.3611,0.0000,0.0012,0.140,0.007,11.850,0.000,75.000
8.234,1.3701,-0.0012,1.3701,0.0000,0.0012,0.140,0.012,11.850,0.000,75.000
8.291,1.3761,-0.0012,1.3761,0.0000,0.0012,0.137,0.014,11.870,0.000,76.110
8.335,1.3816,-0.0011,1.3816,0.0000,0.0011,0.135,0.015,11.870,0.000,76.110
8.391,1.3901,-0.0011,1.3901,0.0000,0.0011,0.133,0.014,11.850,0.000,75.000
8.438,1.3953,-0.0011,1.3953,0.0000,0.0011,0.128,0.011,11.890,0.000,77.220
8.485,1.4037,-0.0011,1.4037,0.0000,0.0011,0.128,0.014,11.870,0.000,76.110
8.540,1.4089,-0.0011,1.4089,0.0000,0.0011,0.123,0.000,11.890,0.000,77.220
8.589,1.4143,-0.0010,1.4143,0.0000,0.0010,0.121,-0.005,11.870,0.000,76.110
8.632,1.4217,-0.0010,1.4217,0.0000,0.0010,0.121,0.010,11.890,0.000,77.220
8.689,1.4270,-0.0010,1.4270,0.0000,0.0010,0.116,0.010,11.870,0.000,76.110
8.736,1.4322,-0.0010,1.4322,0.0000,0.0010,0.114,0.016,11.870,0.000,76.110
8.783,1.4396,-0.0009,1.4396,0.0000,0.0009,0.114,0.010,11.870,0.000,76.110
8.826,1.4443,-0.0009,1.4443,0.0000,0.0009,0.110,0.025,11.870,0.000,76.110
8.884,1.4490,-0.0009,1.4490,0.0000,0.0009,0.110,0.012,11.870,0.000,76.110
8.924,1.4559,-0.0009,1.4559,0.0000,0.0009,0.108,0.013,11.870,0.000,76.110
8.995,1.4605,-0.0009,1.4605,0.0000,0.0009,0.106,0.013,11.870,0.000,76.110
9.037,1.4651,-0.0009,1.4651,0.0000,0.0009,0.103,0.010,11.850,0.000,75.000
9.086,1.4715,-0.0008,1.4715,0.0000,0.0008,0.100,0.023,11.870,0.000,76.110
9.137,1.4758,-0.0008,1.4758,0.0000,0.0008,0.099,0.034,11.850,0.000,75.000
9.189,1.4801,-0.0008,1.4801,0.0000,0.0008,0.097,0.011,11.850,0.000,75.000
9.234,1.4864,-0.0008,1.4864,0.0000,0.0008,0.097,0.015,11.890,0.000,77.220
9.288,1.4906,-0.0008,1.4906,0.0000,0.0008,0.093,0.011,11.870,0.000,76.110
9.334,1.4944,-0.0008,1.4944,0.0000,0.0008,0.093,0.014,11.890,0.000,77.220
9.381,1.5002,-0.0008,1.5002,0.0000,0.0008,0.092,0.014,11.890,0.000,77.220
9.437,1.5041,-0.0008,1.5041,0.0000,0.0008,0.089,-0.002,11.890,0.000,77.220
9.511,1.5080,-0.0007,1.5080,0.0000,0.0007,0.089,0.012,11.890,0.000,77.220
9.538,1.5134,-0.0007,1.5134,0.0000,0.0007,0.085,0.005,11.890,0.000,77.220
9.592,1.5168,-0.0007,1.5168,0.0000,0.0007,0.085,0.010,11.890,0.000,77.220
9.636,1.5218,-0.0007,1.5218,0.0000,0.0007,0.082,0.003,11.890,0.000,77.220
9.691,1.5251,-0.0007,1.5251,0.0000,0.0007,0.082,0.007,11.890,0.000,77.220
9.738,1.5286,-0.0007,1.5286,0.0000,0.0007,0.080,0.002,11.890,0.000,77.220
9.788,1.5320,-0.0006,1.5320,0.0000,0.0006,0.078,-0.006,11.890,0.000,77.220
9.828,1.5371,-0.0006,1.5371,0.0000,0.0006,0.077,0.004,11.890,0.000,77.220
9.890,1.5403,-0.0006,1.5403,0.0000,0.0006,0.075,0.013,11.910,0.000,78.330
9.931,1.5446,-0.0006,1.5446,0.0000,0.0006,0.075,0.006,11.890,0.000,77.220
9.994,1.5476,-0.0006,1.5476,0.0000,0.0006,0.074,0.005,11.910,0.000,78.330
10.038,1.5505,-0.0006,1.5505,0.0000,0.0006,0.072,0.038,11.910,0.000,78.330
10.083,1.5548,-0.0005,1.5548,0.0000,0.0005,0.072,0.009,11.930,0.000,79.440
10.137,1.5578,-0.0005,1.5578,0.0000,0.0005,0.069,-0.006,11.910,0.000,78.330
10.189,1.5608,-0.0005,1.5608,0.0000,0.0005,0.068,0.025,11.910,0.000,78.330
10.230,1.5652,-0.0005,1.5652,0.0000,0.0005,0.067,0.035,11.930,0.000,79.440
10.291,1.5680,-0.0005,1.5680,0.0000,0.0005,0.067,0.011,11.910,0.000,78.330
10.335,1.5705,-0.0005,1.5705,0.0000,0.0005,0.066,0.012,11.910,0.000,78.330
10.395,1.5744,-0.0005,1.5744,0.0000,0.0005,0.065,0.011,11.930,0.000,79.440
10.437,1.5769,-0.0005,1.5769,0.0000,0.0005,0.062,0.017,11.910,0.000,78.330
10.487,1.5795,-0.0005,1.5795,0.0000,0.0005,0.061,0.010,11.930,0.000,79.440
10.530,1.5834,-0.0004,1.5834,0.0000,0.0004,0.060,0.006,11.910,0.000,78.330
10.589,1.5859,-0.0004,1.5859,0.0000,0.0004,0.059,0.006,11.930,0.000,79.440
10.632,1.5885,-0.0004,1.5885,0.0000,0.0004,0.059,0.010,11.950,0.000,80.550
10.678,1.5920,-0.0004,1.5920,0.0000,0.0004,0.057,0.005,11.950,0.000,80.550
10.737,1.5942,-0.0004,1.5942,0.0000,0.0004,0.056,0.008,11.930,0.000,79.440
10.807,1.5964,-0.0004,1.5964,0.0000,0.0004,0.055,0.008,11.950,0.000,80.550
10.836,1.5996,-0.0004,1.5996,0.0000,0.0004,0.054,0.010,11.930,0.000,79.440
10.889,1.6017,-0.0004,1.6017,0.0000,0.0004,0.053,0.018,11.930,0.000,79.440
10.938,1.6039,-0.0004,1.6039,0.0000,0.0004,0.053,0.018,11.930,0.000,79.440
10.981,1.6072,-0.0004,1.6072,0.0000,0.0004,0.053,0.011,11.930,0.000,79.440
11.045,1.6094,-0.0004,1.6094,0.0000,0.0004,0.051,0.010,11.930,0.000,79.440
11.084,1.6115,-0.0004,1.6115,0.0000,0.0004,0.051,0.009,11.930,0.000,79.440
11.128,1.6147,-0.0003,1.6147,0.0000,0.0003,0.049,0.002,11.930,0.000,79.440
11.192,1.6168,-0.0003,1.6168,0.0000,0.0003,0.049,0.008,11.970,0.000,81.660
11.237,1.6196,-0.0003,1.6196,0.0000,0.0003,0.047,0.017,11.970,0.000,81.660
11.293,1.6214,-0.0003,1.6214,0.0000,0.0003,0.047,0.009,11.950,0.000,80.550
11.341,1.6232,-0.0003,1.6232,0.0000,0.0003,0.046,0.009,11.950,0.000,80.550
11.391,1.6257,-0.0003,1.6257,0.0000,0.0003,0.046,0.008,11.950,0.000,80.550
11.424,1.6275,-0.0003,1.6275,0.0000,0.0003,0.045,0.008,11.970,0.000,81.660
11.488,1.6292,-0.0003,1.6292,0.0000,0.0003,0.043,0.026,11.970,0.000,81.660
11.548,1.6318,-0.0003,1.6318,0.0000,0.0003,0.043,0.011,11.950,0.000,80.550
11.589,1.6336,-0.0003,1.6336,0.0000,0.0003,0.042,0.004,11.970,0.000,81.660
11.639,1.6353,-0.0003,1.6353,0.0000,0.0003,0.041,-0.013,11.970,0.000,81.660
11.697,1.6379,-0.0003,1.6379,0.0000,0.0003,0.040,0.024,11.970,0.000,81.660
11.741,1.6396,-0.0003,1.6396,0.0000,0.0003,0.040,0.008,11.970,0.000,81.660
11.789,1.6413,-0.0003,1.6413,0.0000,0.0003,0.039,0.023,11.970,0.000,81.660
11.840,1.6438,-0.0002,1.6438,0.0000,0.0002,0.039,0.012,11.980,0.000,82.220
11.890,1.6455,-0.0002,1.6455,0.0000,0.0002,0.038,-0.001,11.980,0.000,82.220
11.936,1.6470,-0.0002,1.6470,0.0000,0.0002,0.037,0.000,11.980,0.000,82.220
11.979,1.6488,-0.0002,1.6488,0.0000,0.0002,0.036,0.012,11.980,0.000,82.220
12.040,1.6501,-0.0002,1.6501,0.0000,0.0002,0.036,-0.002,11.970,0.000,81.660
12.087,1.6513,-0.0002,1.6513,0.0000,0.0002,0.036,0.012,11.970,0.000,81.660
12.132,1.6532,-0.0002,1.6532,0.0000,0.0002,0.036,0.009,11.970,0.000,81.660
12.189,1.6544,-0.0002,1.6544,0.0000,0.0002,0.034,0.022,11.980,0.000,82.220
12.239,1.6557,-0.0002,1.6557,0.0000,0.0002,0.034,0.022,11.970,0.000,81.660
12.281,1.6576,-0.0002,1.6576,0.0000,0.0002,0.034,0.013,11.970,0.000,81.660
12.336,1.6589,-0.0002,1.6589,0.0000,0.0002,0.033,0.005,11.970,0.000,81.660
12.387,1.6602,-0.0002,1.6602,0.0000,0.0002,0.032,-0.001,11.980,0.000,82.220
12.425,1.6622,-0.0002,1.6622,0.0000,0.0002,0.032,0.010,11.980,0.000,82.220
12.487,1.6634,-0.0002,1.6634,0.0000,0.0002,0.031,0.013,11.980,0.000,82.220
12.539,1.6647,-0.0002,1.6647,0.0000,0.0002,0.031,0.013,11.970,0.000,81.660
12.581,1.6665,-0.0002,1.6665,0.0000,0.0002,0.031,0.010,11.970,0.000,81.660
12.628,1.6677,-0.0002,1.6677,0.0000,0.0002,0.030,0.020,11.980,0.000,82.220
12.686,1.6690,-0.0002,1.6690,0.0000,0.0002,0.029,0.015,12.000,0.000,83.330
12.728,1.6710,-0.0002,1.6710,0.0000,0.0002,0.028,0.012,11.980,0.000,82.220
12.788,1.6719,-0.0002,1.6719,0.0000,0.0002,0.028,-0.001,12.000,0.000,83.330
12.834,1.6729,-0.0002,1.6729,0.0000,0.0002,0.028,0.011,11.980,0.000,82.220
12.882,1.6741,-0.0002,1.6741,0.0000,0.0002,0.028,0.010,12.000,0.000,83.330
12.936,1.6750,-0.0002,1.6750,0.0000,0.0002,0.027,0.003,11.980,0.000,82.220
13.000,1.6758,-0.0002,1.6758,0.0000,0.0002,0.027,0.012,11.980,0.000,82.220
13.024,1.6771,-0.0002,1.6771,0.0000,0.0002,0.027,0.008,11.980,0.000,82.220
13.087,1.6779,-0.0002,1.6779,0.0000,0.0002,0.026,0.004,12.000,0.000,83.330
13.134,1.6787,-0.0002,1.6787,0.0000,0.0002,0.026,0.008,11.980,0.000,82.220
13.180,1.6799,-0.0002,1.6799,0.0000,0.0002,0.026,0.009,12.000,0.000,83.330
