t,x,y,ref_x,ref_y,err,v,w,voltage,current,percentage
0.026,0.0000,0.0000,0.0000,0.0000,0.0000,0.180,-0.001,12.040,0.000,85.550
0.080,0.0000,0.0000,0.0000,0.0000,0.0000,0.180,-0.001,11.930,0.000,79.440
0.125,-0.0000,0.0000,0.0000,0.0000,0.0000,0.180,-0.000,11.800,0.000,72.220
0.185,0.0032,-0.0000,0.0032,0.0000,0.0000,0.180,0.012,11.870,0.000,76.110
0.229,0.0134,-0.0001,0.0134,0.0000,0.0001,0.180,0.018,11.910,0.000,78.330
0.281,0.0211,-0.0002,0.0211,0.0000,0.0002,0.180,0.020,11.890,0.000,77.220
0.334,0.0288,-0.0003,0.0288,0.0000,0.0003,0.180,0.022,11.890,0.000,77.220
0.380,0.0404,-0.0005,0.0404,0.0000,0.0005,0.180,0.022,11.910,0.000,78.330
0.422,0.0482,-0.0006,0.0482,0.0000,0.0006,0.180,0.024,11.910,0.000,78.330
0.487,0.0558,-0.0007,0.0558,0.0000,0.0007,0.180,0.024,11.890,0.000,77.220
0.526,0.0672,-0.0008,0.0672,0.0000,0.0008,0.180,0.023,11.870,0.000,76.110
0.574,0.0751,-0.0009,0.0751,0.0000,0.0009,0.180,0.023,11.930,0.000,79.440
0.631,0.0827,-0.0010,0.0827,0.0000,0.0010,0.180,0.022,11.910,0.000,78.330
0.676,0.0943,-0.0012,0.0943,0.0000,0.0012,0.180,0.021,11.870,0.000,76.110
0.720,0.1021,-0.0012,0.1021,0.0000,0.0012,0.180,0.021,11.890,0.000,77.220
0.783,0.1098,-0.0013,0.1098,0.0000,0.0013,0.180,0.019,11.890,0.000,77.220
0.826,0.1215,-0.0014,0.1215,0.0000,0.0014,0.180,0.020,11.890,0.000,77.220
0.873,0.1291,-0.0014,0.1291,0.0000,0.0014,0.180,0.019,11.890,0.000,77.220
0.932,0.1369,-0.0015,0.1369,0.0000,0.0015,0.180,0.019,11.890,0.000,77.220
0.992,0.1484,-0.0016,0.1484,0.0000,0.0016,0.180,0.020,11.910,0.000,78.330
1.026,0.1561,-0.0016,0.1561,0.0000,0.0016,0.180,0.019,11.870,0.000,76.110
1.083,0.1637,-0.0017,0.1637,0.0000,0.0017,0.180,0.019,11.890,0.000,77.220
1.129,0.1751,-0.0018,0.1751,0.0000,0.0018,0.180,0.019,11.890,0.000,77.220
1.185,0.1828,-0.0018,0.1828,0.0000,0.0018,0.180,0.018,11.890,0.000,77.220
1.230,0.1903,-0.0018,0.1903,0.0000,0.0018,0.180,0.017,11.890,0.000,77.220
1.277,0.2018,-0.0019,0.2018,0.0000,0.0019,0.180,0.017,11.910,0.000,78.330
1.342,0.2095,-0.0019,0.2095,0.0000,0.0019,0.180,0.017,11.890,0.000,77.220
1.383,0.2171,-0.0020,0.2171,0.0000,0.0020,0.180,0.016,11.890,0.000,77.220
1.427,0.2285,-0.0020,0.2285,0.0000,0.0020,0.180,0.017,11.890,0.000,77.220
1.490,0.2363,-0.0020,0.2363,0.0000,0.0020,0.180,0.017,11.890,0.000,77.220
1.528,0.2440,-0.0021,0.2440,0.0000,0.0021,0.180,0.018,11.910,0.000,78.330
1.578,0.2555,-0.0021,0.2555,0.0000,0.0021,0.180,0.019,11.870,0.000,76.110
1.624,0.2631,-0.0021,0.2631,0.0000,0.0021,0.180,0.019,11.890,0.000,77.220
1.679,0.2708,-0.0022,0.2708,0.0000,0.0022,0.180,0.020,11.890,0.000,77.220
1.724,0.2824,-0.0022,0.2824,0.0000,0.0022,0.180,0.020,11.870,0.000,76.110
1.782,0.2901,-0.0023,0.2901,0.0000,0.0023,0.180,0.020,11.910,0.000,78.330
1.827,0.2979,-0.0023,0.2979,0.0000,0.0023,0.180,0.019,11.890,0.000,77.220
1.875,0.3095,-0.0024,0.3095,0.0000,0.0024,0.180,0.018,11.870,0.000,76.110
1.923,0.3171,-0.0024,0.3171,0.0000,0.0024,0.180,0.019,11.910,0.000,78.330
1.980,0.3251,-0.0024,0.3251,0.0000,0.0024,0.180,0.019,11.910,0.000,78.330
2.044,0.3366,-0.0024,0.3366,0.0000,0.0024,0.180,0.019,11.870,0.000,76.110
2.087,0.3442,-0.0025,0.3442,0.0000,0.0025,0.180,0.019,11.870,0.000,76.110
2.127,0.3557,-0.0025,0.3557,0.0000,0.0025,0.180,0.020,11.890,0.000,77.220
2.175,0.3635,-0.0025,0.3635,0.0000,0.0025,0.180,0.019,11.890,0.000,77.220
2.233,0.3709,-0.0026,0.3709,0.0000,0.0026,0.180,0.020,11.850,0.000,75.000
2.277,0.3823,-0.0026,0.3823,0.0000,0.0026,0.180,0.020,11.910,0.000,78.330
2.323,0.3901,-0.0026,0.3901,0.0000,0.0026,0.180,0.019,11.870,0.000,76.110
2.382,0.3975,-0.0026,0.3975,0.0000,0.0026,0.180,0.018,11.870,0.000,76.110
2.426,0.4089,-0.0027,0.4089,0.0000,0.0027,0.180,0.018,11.890,0.000,77.220
2.506,0.4168,-0.0027,0.4168,0.0000,0.0027,0.180,0.018,11.890,0.000,77.220
2.532,0.4242,-0.0027,0.4242,0.0000,0.0027,0.180,0.016,11.890,0.000,77.220
2.578,0.4357,-0.0027,0.4357,0.0000,0.0027,0.180,0.017,11.890,0.000,77.220
2.624,0.4435,-0.0027,0.4435,0.0000,0.0027,0.180,0.017,11.910,0.000,78.330
2.685,0.4511,-0.0027,0.4511,0.0000,0.0027,0.180,0.018,11.890,0.000,77.220
2.724,0.4626,-0.0027,0.4626,0.0000,0.0027,0.180,0.018,11.890,0.000,77.220
2.787,0.4703,-0.0027,0.4703,0.0000,0.0027,0.180,0.018,11.910,0.000,78.330
2.829,0.4781,-0.0028,0.4781,0.0000,0.0028,0.180,0.018,11.910,0.000,78.330
2.876,0.4895,-0.0028,0.4895,0.0000,0.0028,0.180,0.018,11.870,0.000,76.110
2.921,0.4973,-0.0028,0.4973,0.0000,0.0028,0.180,0.018,11.910,0.000,78.330
2.984,0.5052,-0.0028,0.5052,0.0000,0.0028,0.180,0.018,11.910,0.000,78.330
3.025,0.5168,-0.0028,0.5168,0.0000,0.0028,0.180,0.018,11.870,0.000,76.110
3.091,0.5243,-0.0028,0.5243,0.0000,0.0028,0.180,0.018,11.910,0.000,78.330
3.130,0.5323,-0.0028,0.5323,0.0000,0.0028,0.180,0.018,11.910,0.000,78.330
3.176,0.5439,-0.0028,0.5439,0.0000,0.0028,0.180,0.019,11.870,0.000,76.110
3.224,0.5514,-0.0029,0.5514,0.0000,0.0029,0.180,0.019,11.910,0.000,78.330
3.280,0.5593,-0.0029,0.5593,0.0000,0.0029,0.180,0.019,11.910,0.000,78.330
3.323,0.5708,-0.0029,0.5708,0.0000,0.0029,0.180,0.020,11.870,0.000,76.110
3.388,0.5782,-0.0029,0.5782,0.0000,0.0029,0.180,0.019,11.890,0.000,77.220
3.429,0.5859,-0.0029,0.5859,0.0000,0.0029,0.180,0.019,11.910,0.000,78.330
3.480,0.5974,-0.0029,0.5974,0.0000,0.0029,0.180,0.019,11.890,0.000,77.220
3.523,0.6048,-0.0029,0.6048,0.0000,0.0029,0.180,0.017,11.890,0.000,77.220
3.581,0.6126,-0.0029,0.6126,0.0000,0.0029,0.180,0.016,11.890,0.000,77.220
3.621,0.6241,-0.0029,0.6241,0.0000,0.0029,0.180,0.016,11.890,0.000,77.220
3.680,0.6315,-0.0029,0.6315,0.0000,0.0029,0.180,0.014,11.870,0.000,76.110
3.726,0.6393,-0.0029,0.6393,0.0000,0.0029,0.180,0.014,11.890,0.000,77.220
3.773,0.6508,-0.0029,0.6508,0.0000,0.0029,0.180,0.014,11.910,0.000,78.330
3.835,0.6584,-0.0029,0.6584,0.0000,0.0029,0.180,0.015,11.890,0.000,77.220
3.876,0.6700,-0.0028,0.6700,0.0000,0.0028,0.180,0.014,11.890,0.000,77.220
3.921,0.6777,-0.0028,0.6777,0.0000,0.0028,0.180,0.014,11.910,0.000,78.330
3.984,0.6854,-0.0028,0.6854,0.0000,0.0028,0.180,0.013,11.910,0.000,78.330
4.026,0.6969,-0.0028,0.6969,0.0000,0.0028,0.180,0.012,11.890,0.000,77.220
4.074,0.7048,-0.0028,0.7048,0.0000,0.0028,0.180,0.011,11.910,0.000,78.330
4.131,0.7125,-0.0027,0.7125,0.0000,0.0027,0.180,0.011,11.910,0.000,78.330
4.176,0.7240,-0.0027,0.7240,0.0000,0.0027,0.180,0.010,11.870,0.000,76.110
4.222,0.7317,-0.0027,0.7317,0.0000,0.0027,0.180,0.009,11.910,0.000,78.330
4.285,0.7396,-0.0026,0.7396,0.0000,0.0026,0.180,0.009,11.910,0.000,78.330
4.327,0.7511,-0.0026,0.7511,0.0000,0.0026,0.180,0.009,11.890,0.000,77.220
4.386,0.7588,-0.0026,0.7588,0.0000,0.0026,0.180,0.009,11.910,0.000,78.330
4.431,0.7665,-0.0025,0.7665,0.0000,0.0025,0.180,0.010,11.910,0.000,78.330
4.484,0.7780,-0.0025,0.7780,0.0000,0.0025,0.180,0.010,11.890,0.000,77.220
4.522,0.7856,-0.0025,0.7856,0.0000,0.0025,0.180,0.010,11.890,0.000,77.220
4.597,0.7932,-0.0024,0.7932,0.0000,0.0024,0.180,0.010,11.910,0.000,78.330
4.624,0.8043,-0.0024,0.8043,0.0000,0.0024,0.180,0.009,11.890,0.000,77.220
4.682,0.8118,-0.0024,0.8118,0.0000,0.0024,0.180,0.008,11.890,0.000,77.220
4.726,0.8195,-0.0023,0.8195,0.0000,0.0023,0.180,0.007,11.910,0.000,78.330
4.775,0.8310,-0.0023,0.8310,0.0000,0.0023,0.180,0.007,11.870,0.000,76.110
4.822,0.8385,-0.0023,0.8385,0.0000,0.0023,0.180,0.007,11.870,0.000,76.110
4.877,0.8461,-0.0022,0.8461,0.0000,0.0022,0.180,0.006,11.910,0.000,78.330
4.924,0.8576,-0.0022,0.8576,0.0000,0.0022,0.180,0.007,11.890,0.000,77.220
4.986,0.8653,-0.0021,0.8653,0.0000,0.0021,0.180,0.008,11.870,0.000,76.110
5.023,0.8767,-0.0021,0.8767,0.0000,0.0021,0.180,0.008,11.890,0.000,77.220
5.087,0.8844,-0.0021,0.8844,0.0000,0.0021,0.180,0.008,11.890,0.000,77.220
5.132,0.8921,-0.0021,0.8921,0.0000,0.0021,0.180,0.008,11.890,0.000,77.220
5.177,0.9037,-0.0020,0.9037,0.0000,0.0020,0.180,0.007,11.890,0.000,77.220
5.221,0.9114,-0.0020,0.9114,0.0000,0.0020,0.180,0.007,11.890,0.000,77.220
5.282,0.9192,-0.0020,0.9192,0.0000,0.0020,0.180,0.007,11.890,0.000,77.220
5.324,0.9308,-0.0020,0.9308,0.0000,0.0020,0.180,0.007,11.890,0.000,77.220
5.386,0.9386,-0.0019,0.9386,0.0000,0.0019,0.180,0.006,11.910,0.000,78.330
5.429,0.9463,-0.0019,0.9463,0.0000,0.0019,0.180,0.007,11.890,0.000,77.220
5.478,0.9578,-0.0019,0.9578,0.0000,0.0019,0.180,0.007,11.890,0.000,77.220
5.521,0.9655,-0.0019,0.9655,0.0000,0.0019,0.180,0.007,11.870,0.000,76.110
5.579,0.9728,-0.0018,0.9728,0.0000,0.0018,0.180,0.008,11.890,0.000,77.220
5.624,0.9843,-0.0018,0.9843,0.0000,0.0018,0.180,0.009,11.890,0.000,77.220
5.684,0.9919,-0.0018,0.9919,0.0000,0.0018,0.180,0.009,11.890,0.000,77.220
5.724,1.0029,-0.0018,1.0029,0.0000,0.0018,0.180,0.008,11.890,0.000,77.220
5.773,1.0106,-0.0018,1.0106,0.0000,0.0018,0.180,0.008,11.870,0.000,76.110
5.831,1.0181,-0.0018,1.0181,0.0000,0.0018,0.180,0.006,11.870,0.000,76.110
5.882,1.0294,-0.0017,1.0294,0.0000,0.0017,0.180,0.006,11.870,0.000,76.110
5.924,1.0371,-0.0017,1.0371,0.0000,0.0017,0.180,0.006,11.890,0.000,77.220
5.994,1.0447,-0.0017,1.0447,0.0000,0.0017,0.180,0.006,11.890,0.000,77.220
6.026,1.0562,-0.0017,1.0562,0.0000,0.0017,0.180,0.006,11.910,0.000,78.330
6.083,1.0639,-0.0016,1.0639,0.0000,0.0016,0.180,0.006,11.890,0.000,77.220
6.130,1.0715,-0.0016,1.0715,0.0000,0.0016,0.180,0.007,11.870,0.000,76.110
6.172,1.0830,-0.0016,1.0830,0.0000,0.0016,0.180,0.007,11.910,0.000,78.330
6.222,1.0908,-0.0016,1.0908,0.0000,0.0016,0.180,0.007,11.910,0.000,78.330
6.280,1.0984,-0.0016,1.0984,0.0000,0.0016,0.180,0.008,11.890,0.000,77.220
6.324,1.1100,-0.0016,1.1100,0.0000,0.0016,0.180,0.007,11.890,0.000,77.220
6.382,1.1179,-0.0016,1.1179,0.0000,0.0016,0.180,0.007,11.890,0.000,77.220
6.428,1.1255,-0.0016,1.1255,0.0000,0.0016,0.180,0.007,11.870,0.000,76.110
6.477,1.1371,-0.0015,1.1371,0.0000,0.0015,0.180,0.007,11.870,0.000,76.110
6.523,1.1449,-0.0015,1.1449,0.0000,0.0015,0.180,0.007,11.890,0.000,77.220
6.579,1.1527,-0.0015,1.1527,0.0000,0.0015,0.180,0.008,11.870,0.000,76.110
6.622,1.1642,-0.0015,1.1642,0.0000,0.0015,0.180,0.008,11.890,0.000,77.220
6.683,1.1719,-0.0015,1.1719,0.0000,0.0015,0.180,0.008,11.910,0.000,78.330
6.729,1.1796,-0.0015,1.1796,0.0000,0.0015,0.180,0.009,11.890,0.000,77.220
6.776,1.1911,-0.0015,1.1911,0.0000,0.0015,0.180,0.010,11.890,0.000,77.220
6.822,1.1987,-0.0015,1.1987,0.0000,0.0015,0.180,0.010,11.890,0.000,77.220
6.878,1.2064,-0.0015,1.2064,0.0000,0.0015,0.180,0.010,11.890,0.000,77.220
6.924,1.2179,-0.0015,1.2179,0.0000,0.0015,0.180,0.009,11.890,0.000,77.220
6.987,1.2254,-0.0015,1.2254,0.0000,0.0015,0.180,0.009,11.890,0.000,77.220
7.028,1.2369,-0.0015,1.2369,0.0000,0.0015,0.180,0.008,11.910,0.000,78.330
7.072,1.2446,-0.0015,1.2446,0.0000,0.0015,0.180,0.008,11.890,0.000,77.220
7.131,1.2521,-0.0015,1.2521,0.0000,0.0015,0.180,0.007,11.890,0.000,77.220
7.179,1.2637,-0.0015,1.2637,0.0000,0.0015,0.180,0.007,11.890,0.000,77.220
7.222,1.2714,-0.0015,1.2714,0.0000,0.0015,0.180,0.008,11.890,0.000,77.220
7.284,1.2790,-0.0015,1.2790,0.0000,0.0015,0.180,0.009,11.870,0.000,76.110
7.324,1.2906,-0.0015,1.2906,0.0000,0.0015,0.180,0.009,11.890,0.000,77.220
7.373,1.2983,-0.0015,1.2983,0.0000,0.0015,0.180,0.010,11.890,0.000,77.220
7.431,1.3059,-0.0015,1.3059,0.0000,0.0015,0.180,0.010,11.870,0.000,76.110
7.476,1.3176,-0.0015,1.3176,0.0000,0.0015,0.180,0.010,11.910,0.000,78.330
7.521,1.3254,-0.0015,1.3254,0.0000,0.0015,0.180,0.010,11.890,0.000,77.220
7.582,1.3330,-0.0015,1.3330,0.0000,0.0015,0.180,0.009,11.890,0.000,77.220
7.624,1.3446,-0.0015,1.3446,0.0000,0.0015,0.180,0.008,11.890,0.000,77.220
7.684,1.3524,-0.0015,1.3524,0.0000,0.0015,0.180,0.008,11.890,0.000,77.220
7.730,1.3601,-0.0015,1.3601,0.0000,0.0015,0.180,0.009,11.890,0.000,77.220
7.773,1.3717,-0.0015,1.3717,0.0000,0.0015,0.180,0.009,11.870,0.000,76.110
7.821,1.3794,-0.0015,1.3794,0.0000,0.0015,0.180,0.009,11.910,0.000,78.330
7.880,1.3871,-0.0015,1.3871,0.0000,0.0015,0.180,0.010,11.890,0.000,77.220
7.925,1.3985,-0.0016,1.3985,0.0000,0.0016,0.180,0.011,11.890,0.000,77.220
7.983,1.4061,-0.0016,1.4061,0.0000,0.0016,0.180,0.010,11.890,0.000,77.220
8.028,1.4138,-0.0016,1.4138,0.0000,0.0016,0.180,0.009,11.890,0.000,77.220
8.075,1.4253,-0.0016,1.4253,0.0000,0.0016,0.180,0.009,11.890,0.000,77.220
8.122,1.4328,-0.0016,1.4328,0.0000,0.0016,0.180,0.007,11.890,0.000,77.220
8.187,1.4405,-0.0016,1.4405,0.0000,0.0016,0.180,0.006,11.890,0.000,77.220
8.225,1.4519,-0.0015,1.4519,0.0000,0.0015,0.180,0.006,11.870,0.000,76.110
8.280,1.4595,-0.0015,1.4595,0.0000,0.0015,0.180,0.006,11.870,0.000,76.110
8.328,1.4670,-0.0015,1.4670,0.0000,0.0015,0.180,0.006,11.890,0.000,77.220
8.373,1.4785,-0.0015,1.4785,0.0000,0.0015,0.180,0.006,11.890,0.000,77.220
8.445,1.4863,-0.0015,1.4863,0.0000,0.0015,0.180,0.006,11.890,0.000,77.220
8.479,1.4939,-0.0015,1.4939,0.0000,0.0015,0.180,0.007,11.890,0.000,77.220
8.526,1.5055,-0.0014,1.5055,0.0000,0.0014,0.180,0.289,11.890,0.000,77.220
8.580,1.5132,-0.0014,1.5132,0.0000,0.0014,0.180,0.450,11.890,0.000,77.220
8.624,1.5209,-0.0014,1.5209,0.0000,0.0014,0.159,0.566,11.910,0.000,78.330
8.684,1.5321,-0.0013,1.5321,0.0000,0.0013,0.131,0.686,11.890,0.000,77.220
8.728,1.5399,-0.0011,1.5399,0.0000,0.0011,0.123,0.735,11.950,0.000,80.550
8.777,1.5509,-0.0006,1.5509,0.0000,0.0006,0.113,0.798,11.970,0.000,81.660
8.823,1.5571,-0.0001,1.5571,0.0000,0.0001,0.111,0.813,11.980,0.000,82.220
8.881,1.5626,0.0005,1.5626,0.0000,0.0005,0.112,0.801,11.980,0.000,82.220
8.923,1.5702,0.0016,1.5702,0.0000,0.0016,0.110,0.817,11.970,0.000,81.660
8.980,1.5747,0.0025,1.5747,0.0000,0.0025,0.112,0.807,11.970,0.000,81.660
9.027,1.5793,0.0035,1.5793,0.0000,0.0035,0.115,0.780,11.970,0.000,81.660
9.072,1.5858,0.0052,1.5858,0.0000,0.0052,0.115,0.783,11.970,0.000,81.660
9.132,1.5903,0.0067,1.5903,0.0000,0.0067,0.120,0.751,12.000,0.000,83.330
9.177,1.5969,0.0090,1.5969,0.0000,0.0090,0.119,0.754,11.980,0.000,82.220
9.221,1.6013,0.0107,1.6013,0.0000,0.0107,0.119,0.754,11.970,0.000,81.660
9.286,1.6054,0.0126,1.6054,0.0000,0.0126,0.127,0.710,11.970,0.000,81.660
9.323,1.6117,0.0156,1.6117,0.0000,0.0156,0.127,0.710,11.970,0.000,81.660
9.374,1.6160,0.0179,1.6160,0.0000,0.0179,0.129,0.698,11.950,0.000,80.550
9.432,1.6204,0.0204,1.6204,0.0000,0.0204,0.135,0.669,11.970,0.000,81.660
9.475,1.6268,0.0244,1.6268,0.0000,0.0244,0.134,0.670,11.970,0.000,81.660
9.525,1.6310,0.0272,1.6310,0.0000,0.0272,0.137,0.659,11.950,0.000,80.550
9.581,1.6353,0.0302,1.6353,0.0000,0.0302,0.143,0.631,11.950,0.000,80.550
9.624,1.6419,0.0353,1.6419,0.0000,0.0353,0.142,0.633,11.950,0.000,80.550
9.684,1.6463,0.0389,1.6463,0.0000,0.0389,0.144,0.623,11.930,0.000,79.440
9.730,1.6507,0.0427,1.6507,0.0000,0.0427,0.150,0.599,11.930,0.000,79.440
9.778,1.6573,0.0488,1.6573,0.0000,0.0488,0.150,0.602,11.930,0.000,79.440
9.824,1.6616,0.0531,1.6616,0.0000,0.0531,0.152,0.592,11.930,0.000,79.440
9.879,1.6658,0.0573,1.6658,0.0000,0.0573,0.158,0.568,11.930,0.000,79.440
9.925,1.6719,0.0641,1.6719,0.0000,0.0641,0.158,0.571,11.950,0.000,80.550
9.981,1.6760,0.0688,1.6760,0.0000,0.0688,0.164,0.547,11.930,0.000,79.440
10.027,1.6799,0.0737,1.7500,0.0737,0.0701,0.167,0.538,11.910,0.000,78.330
10.077,1.6858,0.0814,1.7500,0.0814,0.0642,0.167,0.540,11.910,0.000,78.330
10.124,1.6896,0.0866,1.7500,0.0866,0.0604,0.174,0.517,11.910,0.000,78.330
10.178,1.6934,0.0922,1.7500,0.0922,0.0566,0.177,0.509,11.930,0.000,79.440
10.222,1.6990,0.1007,1.7500,0.1007,0.0510,0.176,0.511,11.930,0.000,79.440
10.285,1.7026,0.1067,1.7500,0.1067,0.0474,0.180,0.490,11.930,0.000,79.440
10.326,1.7080,0.1159,1.7500,0.1159,0.0420,0.180,0.492,11.930,0.000,79.440
10.375,1.7116,0.1223,1.7500,0.1223,0.0384,0.180,0.483,11.910,0.000,78.330
10.432,1.7149,0.1287,1.7500,0.1287,0.0351,0.180,0.461,11.930,0.000,79.440
10.476,1.7201,0.1391,1.7500,0.1391,0.0299,0.180,0.460,11.930,0.000,79.440
10.521,1.7234,0.1463,1.7500,0.1463,0.0266,0.180,0.460,11.930,0.000,79.440
10.582,1.7264,0.1533,1.7500,0.1533,0.0236,0.180,0.427,11.950,0.000,80.550
10.624,1.7308,0.1641,1.7500,0.1641,0.0192,0.180,0.426,11.890,0.000,77.220
10.685,1.7335,0.1711,1.7500,0.1711,0.0165,0.180,0.419,11.910,0.000,78.330
10.732,1.7361,0.1782,1.7500,0.1782,0.0139,0.180,0.397,11.930,0.000,79.440
10.777,1.7398,0.1890,1.7500,0.1890,0.0102,0.180,0.394,11.910,0.000,78.330
10.824,1.7421,0.1963,1.7500,0.1963,0.0079,0.180,0.383,11.910,0.000,78.330
10.889,1.7443,0.2036,1.7500,0.2036,0.0057,0.180,0.361,11.910,0.000,78.330
10.924,1.7473,0.2147,1.7500,0.2147,0.0027,0.180,0.355,11.950,0.000,80.550
11.004,1.7492,0.2221,1.7500,0.2221,0.0008,0.180,0.355,11.950,0.000,80.550
11.029,1.7510,0.2295,1.7500,0.2295,0.0010,0.180,0.323,11.950,0.000,80.550
11.076,1.7534,0.2408,1.7500,0.2408,0.0034,0.180,0.317,11.910,0.000,78.330
11.124,1.7549,0.2482,1.7500,0.2482,0.0049,0.180,0.297,11.930,0.000,79.440
11.183,1.7563,0.2559,1.7500,0.2559,0.0063,0.180,0.286,11.910,0.000,78.330
11.225,1.7582,0.2671,1.7500,0.2671,0.0082,0.180,0.280,11.930,0.000,79.440
11.282,1.7594,0.2748,1.7500,0.2748,0.0094,0.180,0.261,11.890,0.000,77.220
11.327,1.7605,0.2823,1.7500,0.2823,0.0105,0.180,0.250,11.890,0.000,77.220
11.377,1.7620,0.2939,1.7500,0.2939,0.0120,0.180,0.242,11.890,0.000,77.220
11.430,1.7628,0.3016,1.7500,0.3016,0.0128,0.180,0.225,11.890,0.000,77.220
11.478,1.7636,0.3095,1.7500,0.3095,0.0136,0.180,0.215,11.890,0.000,77.220
11.522,1.7647,0.3209,1.7500,0.3209,0.0147,0.180,0.209,11.910,0.000,78.330
11.579,1.7653,0.3285,1.7500,0.3285,0.0153,0.180,0.193,11.890,0.000,77.220
11.628,1.7658,0.3362,1.7500,0.3362,0.0158,0.180,0.184,11.890,0.000,77.220
11.675,1.7665,0.3476,1.7500,0.3476,0.0165,0.180,0.177,11.890,0.000,77.220
11.734,1.7669,0.3553,1.7500,0.3553,0.0169,0.180,0.164,11.870,0.000,76.110
11.781,1.7674,0.3668,1.7500,0.3668,0.0174,0.180,0.157,11.910,0.000,78.330
11.823,1.7677,0.3745,1.7500,0.3745,0.0177,0.180,0.149,11.890,0.000,77.220
11.886,1.7679,0.3820,1.7500,0.3820,0.0179,0.180,0.137,11.870,0.000,76.110
11.926,1.7681,0.3935,1.7500,0.3935,0.0181,0.180,0.129,11.910,0.000,78.330
11.973,1.7682,0.4013,1.7500,0.4013,0.0182,0.180,0.122,11.890,0.000,77.220
12.034,1.7683,0.4089,1.7500,0.4089,0.0183,0.180,0.110,11.890,0.000,77.220
12.081,1.7683,0.4203,1.7500,0.4203,0.0183,0.180,0.102,11.890,0.000,77.220
12.122,1.7683,0.4279,1.7500,0.4279,0.0183,0.180,0.095,11.870,0.000,76.110
12.183,1.7682,0.4355,1.7500,0.4355,0.0182,0.180,0.084,11.890,0.000,77.220
12.224,1.7680,0.4469,1.7500,0.4469,0.0180,0.180,0.077,11.850,0.000,75.000
12.284,1.7678,0.4545,1.7500,0.4545,0.0178,0.180,0.070,11.850,0.000,75.000
12.331,1.7676,0.4621,1.7500,0.4621,0.0176,0.180,0.060,11.890,0.000,77.220
12.374,1.7673,0.4737,1.7500,0.4737,0.0173,0.180,0.054,11.890,0.000,77.220
12.423,1.7670,0.4814,1.7500,0.4814,0.0170,0.180,0.049,11.890,0.000,77.220
12.481,1.7668,0.4892,1.7500,0.4892,0.0168,0.180,0.042,11.870,0.000,76.110
12.523,1.7663,0.5008,1.7500,0.5008,0.0163,0.180,0.036,11.890,0.000,77.220
12.583,1.7660,0.5086,1.7500,0.5086,0.0160,0.180,0.032,11.910,0.000,78.330
12.630,1.7657,0.5164,1.7500,0.5164,0.0157,0.180,0.029,11.890,0.000,77.220
12.678,1.7652,0.5280,1.7500,0.5280,0.0152,0.180,0.025,11.870,0.000,76.110
12.722,1.7648,0.5355,1.7500,0.5355,0.0148,0.180,0.022,11.890,0.000,77.220
12.781,1.7645,0.5433,1.7500,0.5433,0.0145,0.180,0.020,11.890,0.000,77.220
12.824,1.7640,0.5547,1.7500,0.5547,0.0140,0.180,0.016,11.850,0.000,75.000
12.886,1.7636,0.5618,1.7500,0.5618,0.0136,0.180,0.013,11.870,0.000,76.110
12.926,1.7631,0.5733,1.7500,0.5733,0.0131,0.180,0.010,11.910,0.000,78.330
12.974,1.7628,0.5811,1.7500,0.5811,0.0128,0.180,0.007,11.870,0.000,76.110
13.031,1.7624,0.5886,1.7500,0.5886,0.0124,0.180,0.005,11.870,0.000,76.110
13.078,1.7619,0.6000,1.7500,0.6000,0.0119,0.180,0.002,11.890,0.000,77.220
13.124,1.7615,0.6079,1.7500,0.6079,0.0115,0.180,0.000,11.870,0.000,76.110
13.183,1.7612,0.6154,1.7500,0.6154,0.0112,0.180,-0.002,11.850,0.000,75.000
13.222,1.7607,0.6268,1.7500,0.6268,0.0107,0.180,-0.005,11.890,0.000,77.220
13.284,1.7603,0.6345,1.7500,0.6345,0.0103,0.180,-0.007,11.890,0.000,77.220
