t,x,y,ref_x,ref_y,err,v,w,voltage,current,percentage
0.120,-0.0000,-0.0000,0.0000,0.0000,0.0000,0.180,-0.006,12.000,0.000,83.330
0.121,-0.0000,-0.0000,0.0000,0.0000,0.0000,0.180,-0.006,12.000,0.000,83.330
0.138,-0.0000,-0.0000,0.0000,0.0000,0.0000,0.180,-0.006,12.000,0.000,83.330
0.202,-0.0000,0.0000,0.0000,0.0000,0.0000,0.180,-0.006,11.620,0.000,62.220
0.242,0.0031,-0.0000,0.0031,0.0000,0.0000,0.180,-0.004,11.710,0.000,67.220
0.355,0.0096,-0.0000,0.0096,0.0000,0.0000,0.180,0.023,11.780,0.000,71.110
0.356,0.0170,-0.0001,0.0170,0.0000,0.0001,0.180,0.023,11.780,0.000,71.110
0.402,0.0287,-0.0002,0.0287,0.0000,0.0002,0.180,0.023,11.760,0.000,70.000
0.438,0.0366,-0.0003,0.0366,0.0000,0.0003,0.180,0.023,11.780,0.000,71.110
0.499,0.0445,-0.0004,0.0445,0.0000,0.0004,0.180,0.023,11.780,0.000,71.110
0.538,0.0562,-0.0005,0.0562,0.0000,0.0005,0.180,0.021,11.780,0.000,71.110
0.609,0.0635,-0.0006,0.0635,0.0000,0.0006,0.180,0.019,11.760,0.000,70.000
0.651,0.0713,-0.0007,0.0713,0.0000,0.0007,0.180,0.018,11.760,0.000,70.000
0.691,0.0828,-0.0008,0.0828,0.0000,0.0008,0.180,0.018,11.760,0.000,70.000
0.737,0.0905,-0.0009,0.0905,0.0000,0.0009,0.180,0.018,11.760,0.000,70.000
0.795,0.0982,-0.0009,0.0982,0.0000,0.0009,0.180,0.018,11.760,0.000,70.000
0.852,0.1096,-0.0010,0.1096,0.0000,0.0010,0.180,0.018,11.760,0.000,70.000
0.899,0.1173,-0.0011,0.1173,0.0000,0.0011,0.180,0.018,11.760,0.000,70.000
0.943,0.1250,-0.0011,0.1250,0.0000,0.0011,0.180,0.018,11.760,0.000,70.000
0.996,0.1365,-0.0012,0.1365,0.0000,0.0012,0.180,0.018,11.760,0.000,70.000
1.038,0.1443,-0.0013,0.1443,0.0000,0.0013,0.180,0.018,11.760,0.000,70.000
1.087,0.1519,-0.0014,0.1519,0.0000,0.0014,0.180,0.018,11.760,0.000,70.000
1.135,0.1631,-0.0014,0.1631,0.0000,0.0014,0.180,0.015,11.760,0.000,70.000
1.201,0.1707,-0.0015,0.1707,0.0000,0.0015,0.180,0.015,11.780,0.000,71.110
1.255,0.1820,-0.0015,0.1820,0.0000,0.0015,0.180,0.013,11.760,0.000,70.000
1.305,0.1897,-0.0016,0.1897,0.0000,0.0016,0.180,0.013,11.780,0.000,71.110
1.344,0.1973,-0.0016,0.1973,0.0000,0.0016,0.180,0.012,11.780,0.000,71.110
1.391,0.2087,-0.0017,0.2087,0.0000,0.0017,0.180,0.010,11.780,0.000,71.110
1.450,0.2163,-0.0017,0.2163,0.0000,0.0017,0.180,0.009,11.740,0.000,68.880
1.501,0.2240,-0.0017,0.2240,0.0000,0.0017,0.180,0.009,11.780,0.000,71.110
1.539,0.2356,-0.0018,0.2356,0.0000,0.0018,0.180,0.008,11.780,0.000,71.110
1.587,0.2435,-0.0018,0.2435,0.0000,0.0018,0.180,0.009,11.760,0.000,70.000
1.645,0.2513,-0.0018,0.2513,0.0000,0.0018,0.180,0.009,11.760,0.000,70.000
1.696,0.2630,-0.0019,0.2630,0.0000,0.0019,0.180,0.011,11.780,0.000,71.110
1.764,0.2710,-0.0019,0.2710,0.0000,0.0019,0.180,0.011,11.760,0.000,70.000
1.815,0.2785,-0.0019,0.2785,0.0000,0.0019,0.180,0.013,11.740,0.000,68.880
1.850,0.2900,-0.0020,0.2900,0.0000,0.0020,0.180,0.014,11.780,0.000,71.110
1.906,0.2978,-0.0020,0.2978,0.0000,0.0020,0.180,0.014,11.780,0.000,71.110
1.950,0.3054,-0.0021,0.3054,0.0000,0.0021,0.180,0.016,11.740,0.000,68.880
2.052,0.3169,-0.0022,0.3169,0.0000,0.0022,0.180,0.018,11.800,0.000,72.220
2.054,0.3246,-0.0022,0.3246,0.0000,0.0022,0.180,0.018,11.800,0.000,72.220
2.095,0.3323,-0.0023,0.3323,0.0000,0.0023,0.180,0.018,11.740,0.000,68.880
2.137,0.3438,-0.0024,0.3438,0.0000,0.0024,0.180,0.018,11.780,0.000,71.110
2.204,0.3516,-0.0024,0.3516,0.0000,0.0024,0.180,0.018,11.780,0.000,71.110
2.245,0.3592,-0.0025,0.3592,0.0000,0.0025,0.180,0.018,11.740,0.000,68.880
2.294,0.3707,-0.0025,0.3707,0.0000,0.0025,0.180,0.017,11.780,0.000,71.110
2.342,0.3784,-0.0026,0.3784,0.0000,0.0026,0.180,0.017,11.780,0.000,71.110
2.426,0.3860,-0.0026,0.3860,0.0000,0.0026,0.180,0.017,11.740,0.000,68.880
2.442,0.3973,-0.0027,0.3973,0.0000,0.0027,0.180,0.016,11.740,0.000,68.880
2.504,0.4049,-0.0027,0.4049,0.0000,0.0027,0.180,0.015,11.780,0.000,71.110
2.560,0.4126,-0.0028,0.4126,0.0000,0.0028,0.180,0.015,11.800,0.000,72.220
2.606,0.4241,-0.0028,0.4241,0.0000,0.0028,0.180,0.015,11.740,0.000,68.880
2.672,0.4316,-0.0029,0.4316,0.0000,0.0029,0.180,0.014,11.780,0.000,71.110
2.710,0.4395,-0.0029,0.4395,0.0000,0.0029,0.180,0.012,11.780,0.000,71.110
2.735,0.4513,-0.0030,0.4513,0.0000,0.0030,0.180,0.012,11.760,0.000,70.000
2.796,0.4589,-0.0030,0.4589,0.0000,0.0030,0.180,0.012,11.740,0.000,68.880
2.842,0.4669,-0.0030,0.4669,0.0000,0.0030,0.180,0.012,11.800,0.000,72.220
2.887,0.4786,-0.0031,0.4786,0.0000,0.0031,0.180,0.011,11.760,0.000,70.000
2.940,0.4862,-0.0031,0.4862,0.0000,0.0031,0.180,0.012,11.740,0.000,68.880
3.006,0.4940,-0.0031,0.4940,0.0000,0.0031,0.180,0.012,11.800,0.000,72.220
3.039,0.5055,-0.0032,0.5055,0.0000,0.0032,0.180,0.012,11.780,0.000,71.110
3.108,0.5130,-0.0032,0.5130,0.0000,0.0032,0.180,0.014,11.740,0.000,68.880
3.144,0.5207,-0.0032,0.5207,0.0000,0.0032,0.180,0.014,11.760,0.000,70.000
3.190,0.5323,-0.0033,0.5323,0.0000,0.0033,0.180,0.017,11.800,0.000,72.220
3.235,0.5399,-0.0033,0.5399,0.0000,0.0033,0.180,0.017,11.740,0.000,68.880
3.317,0.5476,-0.0034,0.5476,0.0000,0.0034,0.180,0.016,11.740,0.000,68.880
3.340,0.5592,-0.0034,0.5592,0.0000,0.0034,0.180,0.016,11.780,0.000,71.110
3.404,0.5669,-0.0035,0.5669,0.0000,0.0035,0.180,0.016,11.740,0.000,68.880
3.438,0.5784,-0.0035,0.5784,0.0000,0.0035,0.180,0.015,11.780,0.000,71.110
3.527,0.5856,-0.0035,0.5856,0.0000,0.0035,0.180,0.014,11.740,0.000,68.880
3.551,0.5933,-0.0036,0.5933,0.0000,0.0036,0.180,0.013,11.740,0.000,68.880
3.592,0.6046,-0.0036,0.6046,0.0000,0.0036,0.180,0.011,11.740,0.000,68.880
3.635,0.6121,-0.0036,0.6121,0.0000,0.0036,0.180,0.010,11.780,0.000,71.110
3.735,0.6198,-0.0036,0.6198,0.0000,0.0036,0.180,0.009,11.780,0.000,71.110
3.739,0.6313,-0.0036,0.6313,0.0000,0.0036,0.180,0.009,11.780,0.000,71.110
3.800,0.6389,-0.0036,0.6389,0.0000,0.0036,0.180,0.008,11.780,0.000,71.110
3.864,0.6467,-0.0036,0.6467,0.0000,0.0036,0.180,0.007,11.760,0.000,70.000
3.892,0.6585,-0.0036,0.6585,0.0000,0.0036,0.180,0.006,11.760,0.000,70.000
3.955,0.6662,-0.0036,0.6662,0.0000,0.0036,0.180,0.006,11.760,0.000,70.000
4.006,0.6741,-0.0036,0.6741,0.0000,0.0036,0.180,0.006,11.780,0.000,71.110
4.040,0.6858,-0.0036,0.6858,0.0000,0.0036,0.180,0.006,11.780,0.000,71.110
4.102,0.6934,-0.0036,0.6934,0.0000,0.0036,0.180,0.008,11.740,0.000,68.880
4.142,0.7013,-0.0036,0.7013,0.0000,0.0036,0.180,0.009,11.780,0.000,71.110
4.204,0.7128,-0.0036,0.7128,0.0000,0.0036,0.180,0.009,11.780,0.000,71.110
4.236,0.7203,-0.0037,0.7203,0.0000,0.0037,0.180,0.014,11.740,0.000,68.880
4.297,0.7280,-0.0037,0.7280,0.0000,0.0037,0.180,0.014,11.780,0.000,71.110
4.336,0.7395,-0.0037,0.7395,0.0000,0.0037,0.180,0.016,11.800,0.000,72.220
4.395,0.7472,-0.0037,0.7472,0.0000,0.0037,0.180,0.015,11.740,0.000,68.880
4.439,0.7549,-0.0038,0.7549,0.0000,0.0038,0.180,0.015,11.780,0.000,71.110
4.507,0.7661,-0.0038,0.7661,0.0000,0.0038,0.180,0.014,11.800,0.000,72.220
4.548,0.7738,-0.0038,0.7738,0.0000,0.0038,0.180,0.013,11.740,0.000,68.880
4.590,0.7851,-0.0038,0.7851,0.0000,0.0038,0.180,0.011,11.780,0.000,71.110
4.653,0.7928,-0.0039,0.7928,0.0000,0.0039,0.180,0.010,11.760,0.000,70.000
4.697,0.8004,-0.0039,0.8004,0.0000,0.0039,0.180,0.009,11.760,0.000,70.000
4.738,0.8113,-0.0039,0.8113,0.0000,0.0039,0.180,0.007,11.760,0.000,70.000
4.786,0.8190,-0.0038,0.8190,0.0000,0.0038,0.180,0.007,11.780,0.000,71.110
4.883,0.8266,-0.0038,0.8266,0.0000,0.0038,0.180,0.006,11.760,0.000,70.000
4.890,0.8380,-0.0038,0.8380,0.0000,0.0038,0.180,0.005,11.760,0.000,70.000
4.961,0.8453,-0.0038,0.8453,0.0000,0.0038,0.180,0.005,11.780,0.000,71.110
4.994,0.8566,-0.0038,0.8566,0.0000,0.0038,0.180,0.004,11.800,0.000,72.220
5.053,0.8643,-0.0038,0.8643,0.0000,0.0038,0.180,0.004,11.760,0.000,70.000
5.098,0.8722,-0.0037,0.8722,0.0000,0.0037,0.180,0.005,11.760,0.000,70.000
5.152,0.8838,-0.0037,0.8838,0.0000,0.0037,0.180,0.005,11.800,0.000,72.220
5.207,0.8916,-0.0037,0.8916,0.0000,0.0037,0.180,0.005,11.780,0.000,71.110
5.247,0.8994,-0.0037,0.8994,0.0000,0.0037,0.180,0.006,11.760,0.000,70.000
5.291,0.9110,-0.0037,0.9110,0.0000,0.0037,0.180,0.007,11.800,0.000,72.220
5.358,0.9187,-0.0037,0.9187,0.0000,0.0037,0.180,0.009,11.760,0.000,70.000
5.395,0.9258,-0.0037,0.9258,0.0000,0.0037,0.180,0.010,11.760,0.000,70.000
5.438,0.9373,-0.0037,0.9373,0.0000,0.0037,0.180,0.010,11.780,0.000,71.110
5.507,0.9450,-0.0037,0.9450,0.0000,0.0037,0.180,0.010,11.780,0.000,71.110
5.542,0.9526,-0.0037,0.9526,0.0000,0.0037,0.180,0.012,11.760,0.000,70.000
5.588,0.9642,-0.0037,0.9642,0.0000,0.0037,0.180,0.011,11.780,0.000,71.110
5.639,0.9720,-0.0037,0.9720,0.0000,0.0037,0.180,0.011,11.780,0.000,71.110
5.694,0.9796,-0.0037,0.9796,0.0000,0.0037,0.180,0.009,11.760,0.000,70.000
5.737,0.9911,-0.0037,0.9911,0.0000,0.0037,0.180,0.007,11.740,0.000,68.880
5.813,0.9988,-0.0037,0.9988,0.0000,0.0037,0.180,0.006,11.800,0.000,72.220
5.846,1.0063,-0.0036,1.0063,0.0000,0.0036,0.180,0.006,11.740,0.000,68.880
5.890,1.0177,-0.0036,1.0177,0.0000,0.0036,0.180,0.004,11.760,0.000,70.000
5.966,1.0253,-0.0036,1.0253,0.0000,0.0036,0.180,0.004,11.780,0.000,71.110
6.009,1.0367,-0.0036,1.0367,0.0000,0.0036,0.180,0.003,11.780,0.000,71.110
6.080,1.0443,-0.0035,1.0443,0.0000,0.0035,0.180,0.003,11.780,0.000,71.110
6.095,1.0516,-0.0035,1.0516,0.0000,0.0035,0.180,0.002,11.780,0.000,71.110
6.142,1.0632,-0.0035,1.0632,0.0000,0.0035,0.180,0.002,11.780,0.000,71.110
6.197,1.0706,-0.0034,1.0706,0.0000,0.0034,0.180,0.001,11.760,0.000,70.000
6.250,1.0785,-0.0034,1.0785,0.0000,0.0034,0.180,0.001,11.780,0.000,71.110
6.310,1.0902,-0.0033,1.0902,0.0000,0.0033,0.180,0.001,11.760,0.000,70.000
6.336,1.0980,-0.0033,1.0980,0.0000,0.0033,0.180,0.002,11.760,0.000,70.000
6.427,1.1057,-0.0033,1.1057,0.0000,0.0033,0.180,0.002,11.800,0.000,72.220
6.441,1.1173,-0.0032,1.1173,0.0000,0.0032,0.180,0.002,11.800,0.000,72.220
6.498,1.1250,-0.0032,1.1250,0.0000,0.0032,0.180,0.005,11.740,0.000,68.880
6.541,1.1326,-0.0032,1.1326,0.0000,0.0032,0.180,0.005,11.760,0.000,70.000
6.587,1.1441,-0.0032,1.1441,0.0000,0.0032,0.180,0.007,11.780,0.000,71.110
6.648,1.1513,-0.0031,1.1513,0.0000,0.0031,0.180,0.007,11.760,0.000,70.000
6.692,1.1629,-0.0031,1.1629,0.0000,0.0031,0.176,0.010,11.760,0.000,70.000
6.735,1.1705,-0.0031,1.1705,0.0000,0.0031,0.174,0.010,11.780,0.000,71.110
6.879,1.1783,-0.0031,1.1783,0.0000,0.0031,0.174,0.010,11.740,0.000,68.880
6.880,1.1893,-0.0031,1.1893,0.0000,0.0031,0.174,0.010,11.740,0.000,68.880
6.900,1.1960,-0.0031,1.1960,0.0000,0.0031,0.168,0.010,11.760,0.000,70.000
6.969,1.2033,-0.0031,1.2033,0.0000,0.0031,0.164,0.009,11.740,0.000,68.880
7.008,1.2141,-0.0031,1.2141,0.0000,0.0031,0.161,0.009,11.740,0.000,68.880
7.036,1.2210,-0.0030,1.2210,0.0000,0.0030,0.159,0.007,11.740,0.000,68.880
7.094,1.2275,-0.0030,1.2275,0.0000,0.0030,0.157,0.007,11.740,0.000,68.880
7.138,1.2375,-0.0030,1.2375,0.0000,0.0030,0.154,0.007,11.740,0.000,68.880
7.201,1.2440,-0.0030,1.2440,0.0000,0.0030,0.154,0.007,11.740,0.000,68.880
7.262,1.2536,-0.0029,1.2536,0.0000,0.0029,0.152,0.006,11.710,0.000,67.220
7.293,1.2600,-0.0029,1.2600,0.0000,0.0029,0.147,0.005,11.740,0.000,68.880
7.348,1.2665,-0.0029,1.2665,0.0000,0.0029,0.147,0.005,11.740,0.000,68.880
7.395,1.2762,-0.0028,1.2762,0.0000,0.0028,0.142,0.004,11.760,0.000,70.000
7.437,1.2824,-0.0028,1.2824,0.0000,0.0028,0.140,0.004,11.740,0.000,68.880
7.512,1.2884,-0.0028,1.2884,0.0000,0.0028,0.138,0.005,11.740,0.000,68.880
7.539,1.2975,-0.0028,1.2975,0.0000,0.0028,0.138,0.005,11.740,0.000,68.880
7.594,1.3036,-0.0027,1.3036,0.0000,0.0027,0.134,0.006,11.730,0.000,68.330
7.647,1.3096,-0.0027,1.3096,0.0000,0.0027,0.134,0.006,11.730,0.000,68.330
7.714,1.3180,-0.0027,1.3180,0.0000,0.0027,0.130,0.008,11.730,0.000,68.330
7.739,1.3236,-0.0027,1.3236,0.0000,0.0027,0.130,0.008,11.730,0.000,68.330
7.798,1.3292,-0.0027,1.3292,0.0000,0.0027,0.126,0.010,11.710,0.000,67.220
7.840,1.3373,-0.0026,1.3373,0.0000,0.0026,0.126,0.010,11.730,0.000,68.330
7.901,1.3424,-0.0026,1.3424,0.0000,0.0026,0.124,0.012,11.730,0.000,68.330
7.948,1.3473,-0.0026,1.3473,0.0000,0.0026,0.122,0.013,11.730,0.000,68.330
7.991,1.3551,-0.0026,1.3551,0.0000,0.0026,0.118,0.013,11.730,0.000,68.330
8.035,1.3601,-0.0026,1.3601,0.0000,0.0026,0.117,0.012,11.760,0.000,70.000
8.098,1.3653,-0.0026,1.3653,0.0000,0.0026,0.115,0.012,11.760,0.000,70.000
8.137,1.3727,-0.0026,1.3727,0.0000,0.0026,0.113,0.012,11.760,0.000,70.000
8.198,1.3775,-0.0026,1.3775,0.0000,0.0026,0.112,0.010,11.740,0.000,68.880
8.242,1.3820,-0.0025,1.3820,0.0000,0.0025,0.112,0.010,11.740,0.000,68.880
8.290,1.3890,-0.0025,1.3890,0.0000,0.0025,0.108,0.009,11.740,0.000,68.880
8.339,1.3938,-0.0025,1.3938,0.0000,0.0025,0.108,0.009,11.760,0.000,70.000
8.392,1.3985,-0.0025,1.3985,0.0000,0.0025,0.105,0.007,11.760,0.000,70.000
8.441,1.4050,-0.0025,1.4050,0.0000,0.0025,0.105,0.007,11.760,0.000,70.000
8.509,1.4093,-0.0024,1.4093,0.0000,0.0024,0.102,0.007,11.780,0.000,71.110
8.540,1.4157,-0.0024,1.4157,0.0000,0.0024,0.102,0.007,11.740,0.000,68.880
8.585,1.4196,-0.0024,1.4196,0.0000,0.0024,0.100,0.007,11.760,0.000,70.000
8.652,1.4239,-0.0024,1.4239,0.0000,0.0024,0.098,0.005,11.760,0.000,70.000
8.692,1.4303,-0.0023,1.4303,0.0000,0.0023,0.096,0.005,11.760,0.000,70.000
8.738,1.4343,-0.0023,1.4343,0.0000,0.0023,0.095,0.004,11.760,0.000,70.000
8.796,1.4381,-0.0023,1.4381,0.0000,0.0023,0.094,0.005,11.780,0.000,71.110
8.844,1.4438,-0.0023,1.4438,0.0000,0.0023,0.094,0.005,11.760,0.000,70.000
8.928,1.4475,-0.0022,1.4475,0.0000,0.0022,0.092,0.006,11.740,0.000,68.880
8.950,1.4533,-0.0022,1.4533,0.0000,0.0022,0.089,0.005,11.760,0.000,70.000
8.990,1.4571,-0.0022,1.4571,0.0000,0.0022,0.088,0.004,11.760,0.000,70.000
9.039,1.4609,-0.0022,1.4609,0.0000,0.0022,0.087,0.002,11.780,0.000,71.110
9.095,1.4647,-0.0021,1.4647,0.0000,0.0021,0.086,0.002,11.780,0.000,71.110
9.138,1.4701,-0.0021,1.4701,0.0000,0.0021,0.084,0.002,11.780,0.000,71.110
9.197,1.4736,-0.0021,1.4736,0.0000,0.0021,0.083,0.001,11.760,0.000,70.000
9.243,1.4771,-0.0020,1.4771,0.0000,0.0020,0.083,0.001,11.760,0.000,70.000
9.290,1.4823,-0.0020,1.4823,0.0000,0.0020,0.080,0.000,11.780,0.000,71.110
9.334,1.4858,-0.0020,1.4858,0.0000,0.0020,0.079,-0.000,11.780,0.000,71.110
9.396,1.4893,-0.0020,1.4893,0.0000,0.0020,0.078,-0.000,11.780,0.000,71.110
9.437,1.4944,-0.0019,1.4944,0.0000,0.0019,0.077,-0.000,11.800,0.000,72.220
9.496,1.4976,-0.0019,1.4976,0.0000,0.0019,0.076,-0.001,11.800,0.000,72.220
9.539,1.5007,-0.0019,1.5007,0.0000,0.0019,0.076,-0.001,11.800,0.000,72.220
9.598,1.5052,-0.0018,1.5052,0.0000,0.0018,0.075,-0.001,11.820,0.000,73.330
9.648,1.5083,-0.0018,1.5083,0.0000,0.0018,0.073,-0.000,11.820,0.000,73.330
9.699,1.5129,-0.0018,1.5129,0.0000,0.0018,0.073,-0.001,11.800,0.000,72.220
9.744,1.5158,-0.0018,1.5158,0.0000,0.0018,0.071,-0.000,11.800,0.000,72.220
9.797,1.5188,-0.0017,1.5188,0.0000,0.0017,0.069,0.001,11.800,0.000,72.220
9.845,1.5232,-0.0017,1.5232,0.0000,0.0017,0.069,0.001,11.820,0.000,73.330
9.887,1.5263,-0.0017,1.5263,0.0000,0.0017,0.068,0.000,11.820,0.000,73.330
9.946,1.5291,-0.0017,1.5291,0.0000,0.0017,0.067,-0.000,11.820,0.000,73.330
9.993,1.5330,-0.0016,1.5330,0.0000,0.0016,0.065,0.001,11.820,0.000,73.330
10.035,1.5355,-0.0016,1.5355,0.0000,0.0016,0.064,0.000,11.820,0.000,73.330
10.099,1.5381,-0.0016,1.5381,0.0000,0.0016,0.064,0.000,11.820,0.000,73.330
10.143,1.5419,-0.0016,1.5419,0.0000,0.0016,0.064,0.001,11.840,0.000,74.440
10.206,1.5444,-0.0015,1.5444,0.0000,0.0015,0.062,0.002,11.820,0.000,73.330
10.275,1.5469,-0.0015,1.5469,0.0000,0.0015,0.061,0.003,11.820,0.000,73.330
10.293,1.5508,-0.0015,1.5508,0.0000,0.0015,0.060,0.002,11.820,0.000,73.330
10.354,1.5533,-0.0015,1.5533,0.0000,0.0015,0.059,0.002,11.840,0.000,74.440
10.396,1.5559,-0.0015,1.5559,0.0000,0.0015,0.058,0.004,11.850,0.000,75.000
10.440,1.5593,-0.0014,1.5593,0.0000,0.0014,0.058,0.004,11.840,0.000,74.440
10.491,1.5614,-0.0014,1.5614,0.0000,0.0014,0.057,0.003,11.850,0.000,75.000
10.546,1.5636,-0.0014,1.5636,0.0000,0.0014,0.057,0.003,11.840,0.000,74.440
10.592,1.5668,-0.0014,1.5668,0.0000,0.0014,0.055,0.003,11.850,0.000,75.000
10.635,1.5689,-0.0014,1.5689,0.0000,0.0014,0.054,0.004,11.850,0.000,75.000
10.697,1.5711,-0.0014,1.5711,0.0000,0.0014,0.054,0.004,11.840,0.000,74.440
10.740,1.5743,-0.0013,1.5743,0.0000,0.0013,0.054,0.004,11.840,0.000,74.440
10.798,1.5765,-0.0013,1.5765,0.0000,0.0013,0.052,0.002,11.840,0.000,74.440
10.843,1.5786,-0.0013,1.5786,0.0000,0.0013,0.052,0.002,11.850,0.000,75.000
10.892,1.5818,-0.0013,1.5818,0.0000,0.0013,0.050,0.003,11.840,0.000,74.440
10.933,1.5840,-0.0013,1.5840,0.0000,0.0013,0.050,0.003,11.850,0.000,75.000
10.995,1.5861,-0.0013,1.5861,0.0000,0.0013,0.050,0.001,11.850,0.000,75.000
11.039,1.5893,-0.0012,1.5893,0.0000,0.0012,0.050,0.001,11.850,0.000,75.000
11.098,1.5915,-0.0012,1.5915,0.0000,0.0012,0.050,0.000,11.850,0.000,75.000
11.146,1.5937,-0.0012,1.5937,0.0000,0.0012,0.050,0.000,11.850,0.000,75.000
11.195,1.5968,-0.0012,1.5968,0.0000,0.0012,0.050,-0.000,11.840,0.000,74.440
11.238,1.5990,-0.0012,1.5990,0.0000,0.0012,0.050,-0.001,11.840,0.000,74.440
11.297,1.6012,-0.0011,1.6012,0.0000,0.0011,0.050,-0.003,11.840,0.000,74.440
11.337,1.6043,-0.0011,1.6043,0.0000,0.0011,0.050,-0.003,11.850,0.000,75.000
11.398,1.6065,-0.0011,1.6065,0.0000,0.0011,0.050,-0.003,11.850,0.000,75.000
11.443,1.6086,-0.0011,1.6086,0.0000,0.0011,0.050,-0.003,11.850,0.000,75.000
11.512,1.6117,-0.0011,1.6117,0.0000,0.0011,0.050,-0.004,11.850,0.000,75.000
11.549,1.6139,-0.0010,1.6139,0.0000,0.0010,0.050,-0.007,11.840,0.000,74.440
11.593,1.6171,-0.0010,1.6171,0.0000,0.0010,0.050,-0.007,11.850,0.000,75.000
11.635,1.6192,-0.0010,1.6192,0.0000,0.0010,0.050,-0.007,11.850,0.000,75.000
11.700,1.6214,-0.0010,1.6214,0.0000,0.0010,0.050,-0.007,11.850,0.000,75.000
11.742,1.6245,-0.0009,1.6245,0.0000,0.0009,0.050,-0.008,11.840,0.000,74.440
11.795,1.6266,-0.0009,1.6266,0.0000,0.0009,0.050,-0.011,11.850,0.000,75.000
11.845,1.6287,-0.0009,1.6287,0.0000,0.0009,0.050,-0.011,11.840,0.000,74.440
11.894,1.6320,-0.0009,1.6320,0.0000,0.0009,0.050,-0.013,11.850,0.000,75.000
11.933,1.6341,-0.0008,1.6341,0.0000,0.0008,0.050,-0.012,11.840,0.000,74.440
12.012,1.6362,-0.0008,1.6362,0.0000,0.0008,0.050,-0.011,11.850,0.000,75.000
12.039,1.6393,-0.0008,1.6393,0.0000,0.0008,0.050,-0.011,11.840,0.000,74.440
12.090,1.6414,-0.0008,1.6414,0.0000,0.0008,0.050,-0.013,11.850,0.000,75.000
12.152,1.6435,-0.0008,1.6435,0.0000,0.0008,0.050,-0.011,11.840,0.000,74.440
12.190,1.6467,-0.0007,1.6467,0.0000,0.0007,0.050,-0.009,11.850,0.000,75.000
12.236,1.6487,-0.0007,1.6487,0.0000,0.0007,0.050,-0.008,11.850,0.000,75.000
12.294,1.6508,-0.0007,1.6508,0.0000,0.0007,0.050,-0.008,11.840,0.000,74.440
12.337,1.6540,-0.0007,1.6540,0.0000,0.0007,0.050,-0.010,11.840,0.000,74.440
12.399,1.6561,-0.0006,1.6561,0.0000,0.0006,0.050,-0.010,11.850,0.000,75.000
12.445,1.6583,-0.0006,1.6583,0.0000,0.0006,0.050,-0.011,11.850,0.000,75.000
12.489,1.6615,-0.0006,1.6615,0.0000,0.0006,0.050,-0.013,11.850,0.000,75.000
12.533,1.6636,-0.0006,1.6636,0.0000,0.0006,0.050,-0.014,11.850,0.000,75.000
12.599,1.6657,-0.0005,1.6657,0.0000,0.0005,0.050,-0.014,11.840,0.000,74.440
12.635,1.6689,-0.0005,1.6689,0.0000,0.0005,0.050,-0.014,11.850,0.000,75.000
12.699,1.6711,-0.0005,1.6711,0.0000,0.0005,0.050,-0.014,11.840,0.000,74.440
12.740,1.6732,-0.0005,1.6732,0.0000,0.0005,0.050,-0.012,11.840,0.000,74.440
12.799,1.6764,-0.0005,1.6764,0.0000,0.0005,0.050,-0.010,11.850,0.000,75.000
12.835,1.6786,-0.0004,1.6786,0.0000,0.0004,0.050,-0.010,11.840,0.000,74.440
12.894,1.6807,-0.0004,1.6807,0.0000,0.0004,0.050,-0.010,11.840,0.000,74.440
12.936,1.6840,-0.0004,1.6840,0.0000,0.0004,0.050,-0.009,11.840,0.000,74.440
12.997,1.6861,-0.0004,1.6861,0.0000,0.0004,0.050,-0.007,11.840,0.000,74.440
13.044,1.6883,-0.0004,1.6883,0.0000,0.0004,0.050,-0.007,11.820,0.000,73.330
13.101,1.6915,-0.0003,1.6915,0.0000,0.0003,0.050,-0.007,11.840,0.000,74.440
13.148,1.6937,-0.0003,1.6937,0.0000,0.0003,0.050,-0.012,11.840,0.000,74.440
13.195,1.6970,-0.0003,1.6970,0.0000,0.0003,0.050,-0.011,11.850,0.000,75.000
