t,x,y,ref_x,ref_y,err,v,w,voltage,current,percentage
0.026,0.0000,-0.0000,0.0000,0.0000,0.0000,0.180,0.004,12.040,0.000,85.550
0.064,0.0000,0.0000,0.0000,0.0000,0.0000,0.180,-0.002,11.820,0.000,73.330
0.121,0.0000,0.0000,0.0000,0.0000,0.0000,0.180,-0.001,11.740,0.000,68.880
0.161,0.0064,-0.0000,0.0064,0.0000,0.0000,0.180,0.008,11.760,0.000,70.000
0.221,0.0126,-0.0001,0.0126,0.0000,0.0001,0.179,0.020,11.820,0.000,73.330
0.268,0.0198,-0.0001,0.0198,0.0000,0.0001,0.179,-0.062,11.840,0.000,74.440
0.314,0.0308,-0.0002,0.0308,0.0000,0.0002,0.179,0.016,11.840,0.000,74.440
0.371,0.0381,-0.0002,0.0381,0.0000,0.0002,0.180,0.013,11.820,0.000,73.330
0.431,0.0454,-0.0002,0.0454,0.0000,0.0002,0.180,0.011,11.820,0.000,73.330
0.475,0.0560,-0.0002,0.0560,0.0000,0.0002,0.180,0.011,11.820,0.000,73.330
0.518,0.0628,-0.0002,0.0628,0.0000,0.0002,0.180,-0.005,11.820,0.000,73.330
0.561,0.0737,-0.0003,0.0737,0.0000,0.0003,0.180,0.009,11.820,0.000,73.330
0.618,0.0805,-0.0003,0.0805,0.0000,0.0003,0.180,-0.005,11.800,0.000,72.220
0.666,0.0877,-0.0003,0.0877,0.0000,0.0003,0.180,-0.006,11.820,0.000,73.330
0.711,0.0984,-0.0003,0.0984,0.0000,0.0003,0.180,0.005,11.820,0.000,73.330
0.757,0.1058,-0.0003,0.1058,0.0000,0.0003,0.180,0.006,11.840,0.000,74.440
0.844,0.1130,-0.0003,0.1130,0.0000,0.0003,0.180,0.005,11.820,0.000,73.330
0.855,0.1238,-0.0003,0.1238,0.0000,0.0003,0.180,-0.003,11.820,0.000,73.330
0.920,0.1312,-0.0003,0.1312,0.0000,0.0003,0.180,-0.010,11.840,0.000,74.440
0.971,0.1386,-0.0003,0.1386,0.0000,0.0003,0.180,0.002,11.820,0.000,73.330
1.011,0.1497,-0.0003,0.1497,0.0000,0.0003,0.180,0.002,11.840,0.000,74.440
1.067,0.1568,-0.0003,0.1568,0.0000,0.0003,0.180,0.009,11.800,0.000,72.220
1.111,0.1675,-0.0003,0.1675,0.0000,0.0003,0.180,0.004,11.800,0.000,72.220
1.158,0.1743,-0.0003,0.1743,0.0000,0.0003,0.180,0.017,11.820,0.000,73.330
1.217,0.1817,-0.0003,0.1817,0.0000,0.0003,0.180,0.018,11.800,0.000,72.220
1.260,0.1926,-0.0004,0.1926,0.0000,0.0004,0.180,0.019,11.800,0.000,72.220
1.320,0.1999,-0.0004,0.1999,0.0000,0.0004,0.180,0.016,11.800,0.000,72.220
1.366,0.2071,-0.0004,0.2071,0.0000,0.0004,0.180,0.034,11.820,0.000,73.330
1.413,0.2180,-0.0004,0.2180,0.0000,0.0004,0.180,0.012,11.820,0.000,73.330
1.454,0.2253,-0.0005,0.2253,0.0000,0.0005,0.180,0.013,11.820,0.000,73.330
1.519,0.2327,-0.0005,0.2327,0.0000,0.0005,0.180,-0.001,11.820,0.000,73.330
1.561,0.2436,-0.0005,0.2436,0.0000,0.0005,0.180,0.012,11.820,0.000,73.330
1.611,0.2509,-0.0005,0.2509,0.0000,0.0005,0.180,0.011,11.820,0.000,73.330
1.666,0.2582,-0.0005,0.2582,0.0000,0.0005,0.180,-0.000,11.820,0.000,73.330
1.714,0.2691,-0.0005,0.2691,0.0000,0.0005,0.180,0.009,11.820,0.000,73.330
1.754,0.2760,-0.0006,0.2760,0.0000,0.0006,0.180,0.009,11.820,0.000,73.330
1.820,0.2832,-0.0006,0.2832,0.0000,0.0006,0.180,0.000,11.820,0.000,73.330
1.862,0.2940,-0.0006,0.2940,0.0000,0.0006,0.180,0.007,11.820,0.000,73.330
1.921,0.3007,-0.0006,0.3007,0.0000,0.0006,0.180,0.007,11.800,0.000,72.220
1.964,0.3079,-0.0006,0.3079,0.0000,0.0006,0.180,0.007,11.820,0.000,73.330
2.010,0.3184,-0.0006,0.3184,0.0000,0.0006,0.180,0.002,11.820,0.000,73.330
2.142,0.3257,-0.0006,0.3257,0.0000,0.0006,0.180,0.006,11.820,0.000,73.330
2.338,0.3366,-0.0006,0.3366,0.0000,0.0006,0.180,0.019,11.820,0.000,73.330
2.339,0.3440,-0.0006,0.3440,0.0000,0.0006,0.180,0.019,11.820,0.000,73.330
2.339,0.3513,-0.0006,0.3513,0.0000,0.0006,0.180,0.019,11.820,0.000,73.330
2.341,0.3624,-0.0007,0.3624,0.0000,0.0007,0.180,0.019,11.820,0.000,73.330
2.342,0.3697,-0.0007,0.3697,0.0000,0.0007,0.180,0.019,11.820,0.000,73.330
2.368,0.3770,-0.0007,0.3770,0.0000,0.0007,0.180,0.037,11.820,0.000,73.330
2.425,0.3876,-0.0007,0.3876,0.0000,0.0007,0.180,0.013,11.820,0.000,73.330
2.631,0.3946,-0.0007,0.3946,0.0000,0.0007,0.180,0.015,11.840,0.000,74.440
2.691,0.4019,-0.0008,0.4019,0.0000,0.0008,0.180,0.016,11.840,0.000,74.440
2.694,0.4127,-0.0008,0.4127,0.0000,0.0008,0.180,0.016,11.820,0.000,73.330
2.697,0.4199,-0.0008,0.4199,0.0000,0.0008,0.179,0.035,11.850,0.000,75.000
2.698,0.4271,-0.0009,0.4271,0.0000,0.0009,0.179,0.035,11.850,0.000,75.000
2.733,0.4379,-0.0009,0.4379,0.0000,0.0009,0.179,0.018,11.820,0.000,73.330
2.773,0.4452,-0.0009,0.4452,0.0000,0.0009,0.180,0.018,11.820,0.000,73.330
2.815,0.4558,-0.0009,0.4558,0.0000,0.0009,0.180,0.016,11.820,0.000,73.330
2.855,0.4629,-0.0010,0.4629,0.0000,0.0010,0.180,0.007,11.820,0.000,73.330
2.917,0.4701,-0.0010,0.4701,0.0000,0.0010,0.180,-0.002,11.820,0.000,73.330
2.957,0.4811,-0.0010,0.4811,0.0000,0.0010,0.180,0.004,11.820,0.000,73.330
3.007,0.4883,-0.0010,0.4883,0.0000,0.0010,0.180,0.002,11.820,0.000,73.330
3.069,0.4955,-0.0010,0.4955,0.0000,0.0010,0.180,-0.018,11.820,0.000,73.330
3.126,0.5063,-0.0010,0.5063,0.0000,0.0010,0.180,-0.007,11.820,0.000,73.330
3.171,0.5131,-0.0010,0.5131,0.0000,0.0010,0.180,0.006,11.820,0.000,73.330
3.215,0.5235,-0.0010,0.5235,0.0000,0.0010,0.180,0.005,11.800,0.000,72.220
3.270,0.5308,-0.0010,0.5308,0.0000,0.0010,0.180,0.006,11.820,0.000,73.330
3.318,0.5376,-0.0010,0.5376,0.0000,0.0010,0.180,-0.003,11.820,0.000,73.330
3.361,0.5486,-0.0010,0.5486,0.0000,0.0010,0.180,0.003,11.820,0.000,73.330
3.418,0.5558,-0.0010,0.5558,0.0000,0.0010,0.180,0.006,11.850,0.000,75.000
3.461,0.5627,-0.0010,0.5627,0.0000,0.0010,0.180,0.003,11.820,0.000,73.330
3.527,0.5738,-0.0010,0.5738,0.0000,0.0010,0.180,0.014,11.820,0.000,73.330
3.579,0.5808,-0.0010,0.5808,0.0000,0.0010,0.180,0.023,11.840,0.000,74.440
3.616,0.5918,-0.0010,0.5918,0.0000,0.0010,0.180,0.017,11.820,0.000,73.330
3.665,0.5991,-0.0010,0.5991,0.0000,0.0010,0.180,0.025,11.840,0.000,74.440
3.720,0.6065,-0.0010,0.6065,0.0000,0.0010,0.180,0.029,11.840,0.000,74.440
3.764,0.6173,-0.0010,0.6173,0.0000,0.0010,0.180,0.012,11.840,0.000,74.440
3.809,0.6245,-0.0010,0.6245,0.0000,0.0010,0.180,0.026,11.840,0.000,74.440
3.867,0.6318,-0.0010,0.6318,0.0000,0.0010,0.180,0.011,11.840,0.000,74.440
3.913,0.6427,-0.0011,0.6427,0.0000,0.0011,0.180,0.014,11.820,0.000,73.330
3.956,0.6500,-0.0011,0.6500,0.0000,0.0011,0.180,0.007,11.820,0.000,73.330
4.016,0.6570,-0.0011,0.6570,0.0000,0.0011,0.180,0.000,11.820,0.000,73.330
4.059,0.6679,-0.0011,0.6679,0.0000,0.0011,0.180,0.000,11.820,0.000,73.330
4.118,0.6752,-0.0011,0.6752,0.0000,0.0011,0.180,-0.000,11.820,0.000,73.330
4.161,0.6825,-0.0011,0.6825,0.0000,0.0011,0.180,0.009,11.820,0.000,73.330
4.210,0.6929,-0.0011,0.6929,0.0000,0.0011,0.180,-0.004,11.800,0.000,72.220
4.268,0.6997,-0.0011,0.6997,0.0000,0.0011,0.180,-0.001,11.820,0.000,73.330
4.312,0.7105,-0.0011,0.7105,0.0000,0.0011,0.180,0.006,11.820,0.000,73.330
4.359,0.7172,-0.0011,0.7172,0.0000,0.0011,0.180,0.001,11.800,0.000,72.220
4.418,0.7244,-0.0011,0.7244,0.0000,0.0011,0.180,-0.004,11.820,0.000,73.330
4.460,0.7353,-0.0011,0.7353,0.0000,0.0011,0.180,0.005,11.840,0.000,74.440
4.528,0.7425,-0.0011,0.7425,0.0000,0.0011,0.180,-0.004,11.820,0.000,73.330
4.565,0.7499,-0.0011,0.7499,0.0000,0.0011,0.180,0.002,11.820,0.000,73.330
4.610,0.7606,-0.0010,0.7606,0.0000,0.0010,0.180,-0.002,11.800,0.000,72.220
4.679,0.7679,-0.0010,0.7679,0.0000,0.0010,0.180,0.012,11.800,0.000,72.220
4.731,0.7786,-0.0010,0.7786,0.0000,0.0010,0.180,0.003,11.820,0.000,73.330
4.755,0.7861,-0.0010,0.7861,0.0000,0.0010,0.180,0.004,11.840,0.000,74.440
4.821,0.7934,-0.0010,0.7934,0.0000,0.0010,0.180,0.004,11.840,0.000,74.440
4.859,0.8040,-0.0010,0.8040,0.0000,0.0010,0.180,0.020,11.840,0.000,74.440
4.918,0.8110,-0.0010,0.8110,0.0000,0.0010,0.180,0.018,11.800,0.000,72.220
4.965,0.8181,-0.0010,0.8181,0.0000,0.0010,0.180,0.009,11.820,0.000,73.330
5.028,0.8286,-0.0010,0.8286,0.0000,0.0010,0.180,0.021,11.820,0.000,73.330
5.067,0.8359,-0.0010,0.8359,0.0000,0.0010,0.180,0.004,11.840,0.000,74.440
5.114,0.8463,-0.0010,0.8463,0.0000,0.0010,0.180,0.011,11.820,0.000,73.330
5.155,0.8537,-0.0010,0.8537,0.0000,0.0010,0.180,0.010,11.850,0.000,75.000
5.221,0.8610,-0.0010,0.8610,0.0000,0.0010,0.180,0.010,11.800,0.000,72.220
5.261,0.8718,-0.0010,0.8718,0.0000,0.0010,0.180,0.008,11.820,0.000,73.330
5.335,0.8791,-0.0010,0.8791,0.0000,0.0010,0.180,0.004,11.840,0.000,74.440
5.366,0.8863,-0.0010,0.8863,0.0000,0.0010,0.180,-0.001,11.800,0.000,72.220
5.414,0.8971,-0.0010,0.8971,0.0000,0.0010,0.180,0.007,11.820,0.000,73.330
5.459,0.9044,-0.0010,0.9044,0.0000,0.0010,0.180,0.005,11.820,0.000,73.330
5.528,0.9117,-0.0010,0.9117,0.0000,0.0010,0.180,-0.010,11.800,0.000,72.220
5.565,0.9224,-0.0010,0.9224,0.0000,0.0010,0.180,0.004,11.820,0.000,73.330
5.607,0.9296,-0.0010,0.9296,0.0000,0.0010,0.180,-0.005,11.820,0.000,73.330
5.670,0.9368,-0.0010,0.9368,0.0000,0.0010,0.180,0.003,11.800,0.000,72.220
5.714,0.9476,-0.0010,0.9476,0.0000,0.0010,0.180,0.001,11.820,0.000,73.330
5.774,0.9550,-0.0009,0.9550,0.0000,0.0009,0.180,0.001,11.820,0.000,73.330
5.819,0.9623,-0.0009,0.9623,0.0000,0.0009,0.180,-0.014,11.780,0.000,71.110
5.864,0.9734,-0.0009,0.9734,0.0000,0.0009,0.180,-0.002,11.840,0.000,74.440
5.921,0.9809,-0.0009,0.9809,0.0000,0.0009,0.180,-0.001,11.840,0.000,74.440
5.981,0.9882,-0.0008,0.9882,0.0000,0.0008,0.180,-0.001,11.800,0.000,72.220
6.016,0.9993,-0.0008,0.9993,0.0000,0.0008,0.180,0.008,11.820,0.000,73.330
6.060,1.0067,-0.0008,1.0067,0.0000,0.0008,0.180,0.015,11.840,0.000,74.440
6.121,1.0138,-0.0008,1.0138,0.0000,0.0008,0.180,0.002,11.820,0.000,73.330
6.161,1.0248,-0.0008,1.0248,0.0000,0.0008,0.180,0.002,11.840,0.000,74.440
6.277,1.0321,-0.0008,1.0321,0.0000,0.0008,0.180,0.023,11.820,0.000,73.330
6.278,1.0392,-0.0008,1.0392,0.0000,0.0008,0.180,0.023,11.820,0.000,73.330
6.316,1.0501,-0.0008,1.0501,0.0000,0.0008,0.180,0.000,11.840,0.000,74.440
6.358,1.0571,-0.0007,1.0571,0.0000,0.0007,0.180,0.002,11.820,0.000,73.330
6.424,1.0643,-0.0007,1.0643,0.0000,0.0007,0.180,0.005,11.800,0.000,72.220
6.457,1.0748,-0.0007,1.0748,0.0000,0.0007,0.180,0.014,11.840,0.000,74.440
6.520,1.0822,-0.0007,1.0822,0.0000,0.0007,0.180,0.007,11.820,0.000,73.330
6.564,1.0894,-0.0007,1.0894,0.0000,0.0007,0.180,0.005,11.840,0.000,74.440
6.609,1.1004,-0.0007,1.1004,0.0000,0.0007,0.180,0.004,11.820,0.000,73.330
6.668,1.1075,-0.0007,1.1075,0.0000,0.0007,0.180,-0.002,11.820,0.000,73.330
6.720,1.1147,-0.0007,1.1147,0.0000,0.0007,0.180,-0.012,11.800,0.000,72.220
6.758,1.1255,-0.0007,1.1255,0.0000,0.0007,0.180,-0.003,11.840,0.000,74.440
6.821,1.1327,-0.0007,1.1327,0.0000,0.0007,0.180,0.001,11.800,0.000,72.220
6.862,1.1398,-0.0006,1.1398,0.0000,0.0006,0.180,0.001,11.840,0.000,74.440
6.907,1.1504,-0.0006,1.1504,0.0000,0.0006,0.180,-0.014,11.820,0.000,73.330
6.954,1.1576,-0.0006,1.1576,0.0000,0.0006,0.180,-0.001,11.820,0.000,73.330
7.017,1.1649,-0.0006,1.1649,0.0000,0.0006,0.180,-0.002,11.820,0.000,73.330
7.081,1.1761,-0.0005,1.1761,0.0000,0.0005,0.180,-0.003,11.840,0.000,74.440
7.122,1.1834,-0.0005,1.1834,0.0000,0.0005,0.180,-0.004,11.840,0.000,74.440
7.159,1.1944,-0.0005,1.1944,0.0000,0.0005,0.180,0.024,11.840,0.000,74.440
7.208,1.2020,-0.0005,1.2020,0.0000,0.0005,0.180,0.013,11.840,0.000,74.440
7.271,1.2093,-0.0005,1.2093,0.0000,0.0005,0.180,0.001,11.820,0.000,73.330
7.333,1.2202,-0.0005,1.2202,0.0000,0.0005,0.180,0.003,11.840,0.000,74.440
7.356,1.2276,-0.0005,1.2276,0.0000,0.0005,0.180,0.012,11.840,0.000,74.440
7.418,1.2348,-0.0005,1.2348,0.0000,0.0005,0.180,0.018,11.800,0.000,72.220
7.461,1.2420,-0.0005,1.2420,0.0000,0.0005,0.180,0.007,11.840,0.000,74.440
7.511,1.2530,-0.0005,1.2530,0.0000,0.0005,0.180,0.009,11.840,0.000,74.440
7.569,1.2601,-0.0005,1.2601,0.0000,0.0005,0.176,0.026,11.820,0.000,73.330
7.617,1.2675,-0.0005,1.2675,0.0000,0.0005,0.173,0.013,11.840,0.000,74.440
7.655,1.2785,-0.0005,1.2785,0.0000,0.0005,0.170,-0.004,11.840,0.000,74.440
7.720,1.2856,-0.0005,1.2856,0.0000,0.0005,0.170,0.010,11.820,0.000,73.330
7.836,1.2931,-0.0005,1.2931,0.0000,0.0005,0.164,0.003,11.840,0.000,74.440
7.866,1.3037,-0.0005,1.3037,0.0000,0.0005,0.161,-0.016,11.820,0.000,73.330
7.917,1.3103,-0.0005,1.3103,0.0000,0.0005,0.158,0.012,11.820,0.000,73.330
7.937,1.3171,-0.0005,1.3171,0.0000,0.0005,0.156,-0.026,11.850,0.000,75.000
7.977,1.3273,-0.0005,1.3273,0.0000,0.0005,0.152,-0.031,11.780,0.000,71.110
8.031,1.3340,-0.0005,1.3340,0.0000,0.0005,0.152,0.001,11.840,0.000,74.440
8.076,1.3438,-0.0005,1.3438,0.0000,0.0005,0.146,-0.018,11.820,0.000,73.330
8.123,1.3503,-0.0004,1.3503,0.0000,0.0004,0.146,-0.003,11.800,0.000,72.220
8.173,1.3564,-0.0004,1.3564,0.0000,0.0004,0.144,-0.002,11.820,0.000,73.330
8.222,1.3655,-0.0004,1.3655,0.0000,0.0004,0.142,-0.003,11.780,0.000,71.110
8.255,1.3715,-0.0004,1.3715,0.0000,0.0004,0.138,-0.003,11.800,0.000,72.220
8.318,1.3773,-0.0003,1.3773,0.0000,0.0003,0.134,-0.024,11.780,0.000,71.110
8.358,1.3861,-0.0003,1.3861,0.0000,0.0003,0.131,-0.008,11.800,0.000,72.220
8.417,1.3917,-0.0003,1.3917,0.0000,0.0003,0.129,-0.007,11.800,0.000,72.220
8.463,1.3973,-0.0003,1.3973,0.0000,0.0003,0.129,-0.006,11.820,0.000,73.330
8.526,1.4056,-0.0003,1.4056,0.0000,0.0003,0.124,0.004,11.780,0.000,71.110
8.569,1.4109,-0.0002,1.4109,0.0000,0.0002,0.122,-0.001,11.820,0.000,73.330
8.611,1.4188,-0.0002,1.4188,0.0000,0.0002,0.122,-0.003,11.780,0.000,71.110
8.751,1.4236,-0.0002,1.4236,0.0000,0.0002,0.119,-0.003,11.800,0.000,72.220
8.752,1.4289,-0.0002,1.4289,0.0000,0.0002,0.119,-0.003,11.780,0.000,71.110
8.763,1.4364,-0.0002,1.4364,0.0000,0.0002,0.116,0.024,11.820,0.000,73.330
8.824,1.4416,-0.0002,1.4416,0.0000,0.0002,0.113,0.001,11.800,0.000,72.220
8.874,1.4465,-0.0002,1.4465,0.0000,0.0002,0.111,0.003,11.820,0.000,73.330
8.913,1.4536,-0.0002,1.4536,0.0000,0.0002,0.109,0.005,11.800,0.000,72.220
8.956,1.4582,-0.0002,1.4582,0.0000,0.0002,0.105,-0.004,11.820,0.000,73.330
9.018,1.4628,-0.0002,1.4628,0.0000,0.0002,0.103,-0.007,11.820,0.000,73.330
9.059,1.4693,-0.0002,1.4693,0.0000,0.0002,0.101,0.006,11.820,0.000,73.330
9.121,1.4736,-0.0002,1.4736,0.0000,0.0002,0.101,0.003,11.820,0.000,73.330
9.167,1.4780,-0.0002,1.4780,0.0000,0.0002,0.098,0.001,11.820,0.000,73.330
9.214,1.4843,-0.0002,1.4843,0.0000,0.0002,0.098,0.002,11.840,0.000,74.440
9.259,1.4885,-0.0002,1.4885,0.0000,0.0002,0.094,-0.013,11.840,0.000,74.440
9.316,1.4924,-0.0001,1.4924,0.0000,0.0001,0.093,0.008,11.820,0.000,73.330
9.365,1.4981,-0.0001,1.4981,0.0000,0.0001,0.093,0.001,11.820,0.000,73.330
9.421,1.5021,-0.0001,1.5021,0.0000,0.0001,0.091,0.002,11.840,0.000,74.440
9.467,1.5059,-0.0001,1.5059,0.0000,0.0001,0.088,-0.002,11.820,0.000,73.330
9.515,1.5116,-0.0001,1.5116,0.0000,0.0001,0.088,0.001,11.850,0.000,75.000
9.557,1.5154,-0.0001,1.5154,0.0000,0.0001,0.084,-0.012,11.840,0.000,74.440
9.617,1.5187,-0.0001,1.5187,0.0000,0.0001,0.083,-0.005,11.820,0.000,73.330
9.660,1.5235,-0.0001,1.5235,0.0000,0.0001,0.083,-0.001,11.840,0.000,74.440
9.720,1.5271,-0.0001,1.5271,0.0000,0.0001,0.081,-0.002,11.840,0.000,74.440
9.763,1.5305,-0.0001,1.5305,0.0000,0.0001,0.080,-0.003,11.820,0.000,73.330
9.830,1.5355,-0.0001,1.5355,0.0000,0.0001,0.077,-0.009,11.820,0.000,73.330
9.876,1.5390,-0.0001,1.5390,0.0000,0.0001,0.076,-0.016,11.850,0.000,75.000
9.919,1.5437,-0.0001,1.5437,0.0000,0.0001,0.074,0.001,11.840,0.000,74.440
9.957,1.5466,-0.0000,1.5466,0.0000,0.0000,0.073,-0.010,11.850,0.000,75.000
10.020,1.5495,-0.0000,1.5495,0.0000,0.0000,0.072,-0.006,11.850,0.000,75.000
10.065,1.5526,-0.0000,1.5526,0.0000,0.0000,0.071,-0.014,11.850,0.000,75.000
10.110,1.5571,-0.0000,1.5571,0.0000,0.0000,0.069,-0.016,11.840,0.000,74.440
10.156,1.5598,-0.0000,1.5598,0.0000,0.0000,0.068,-0.015,11.870,0.000,76.110
10.229,1.5629,0.0000,1.5629,0.0000,0.0000,0.067,-0.018,11.870,0.000,76.110
10.254,1.5671,0.0000,1.5671,0.0000,0.0000,0.067,-0.010,11.870,0.000,76.110
10.317,1.5696,0.0000,1.5696,0.0000,0.0000,0.065,-0.013,11.850,0.000,75.000
10.362,1.5721,0.0000,1.5721,0.0000,0.0000,0.065,-0.011,11.870,0.000,76.110
10.406,1.5761,0.0001,1.5761,0.0000,0.0001,0.062,-0.014,11.870,0.000,76.110
10.467,1.5786,0.0001,1.5786,0.0000,0.0001,0.062,-0.013,11.850,0.000,75.000
10.513,1.5825,0.0001,1.5825,0.0000,0.0001,0.062,-0.011,11.870,0.000,76.110
10.557,1.5849,0.0001,1.5849,0.0000,0.0001,0.059,-0.006,11.870,0.000,76.110
10.617,1.5875,0.0001,1.5875,0.0000,0.0001,0.058,-0.013,11.890,0.000,77.220
10.661,1.5915,0.0001,1.5915,0.0000,0.0001,0.058,-0.011,11.910,0.000,78.330
10.720,1.5938,0.0001,1.5938,0.0000,0.0001,0.056,-0.005,11.870,0.000,76.110
10.763,1.5959,0.0001,1.5959,0.0000,0.0001,0.056,-0.011,11.890,0.000,77.220
10.820,1.5991,0.0001,1.5991,0.0000,0.0001,0.054,0.008,11.890,0.000,77.220
10.854,1.6013,0.0001,1.6013,0.0000,0.0001,0.054,-0.008,11.890,0.000,77.220
10.917,1.6036,0.0001,1.6036,0.0000,0.0001,0.053,-0.021,11.890,0.000,77.220
10.961,1.6068,0.0001,1.6068,0.0000,0.0001,0.053,-0.009,11.890,0.000,77.220
11.018,1.6089,0.0001,1.6089,0.0000,0.0001,0.051,-0.001,11.890,0.000,77.220
11.078,1.6110,0.0001,1.6110,0.0000,0.0001,0.050,-0.010,11.870,0.000,76.110
11.107,1.6144,0.0002,1.6144,0.0000,0.0002,0.049,-0.016,11.870,0.000,76.110
11.167,1.6166,0.0002,1.6166,0.0000,0.0002,0.048,-0.011,11.910,0.000,78.330
11.214,1.6186,0.0002,1.6186,0.0000,0.0002,0.048,-0.010,11.910,0.000,78.330
11.255,1.6211,0.0002,1.6211,0.0000,0.0002,0.047,-0.009,11.910,0.000,78.330
11.306,1.6229,0.0002,1.6229,0.0000,0.0002,0.046,0.001,11.930,0.000,79.440
11.361,1.6246,0.0002,1.6246,0.0000,0.0002,0.046,-0.008,11.910,0.000,78.330
11.409,1.6272,0.0002,1.6272,0.0000,0.0002,0.044,-0.017,11.910,0.000,78.330
11.453,1.6289,0.0002,1.6289,0.0000,0.0002,0.044,-0.009,11.910,0.000,78.330
11.515,1.6307,0.0002,1.6307,0.0000,0.0002,0.044,-0.009,11.930,0.000,79.440
11.556,1.6333,0.0002,1.6333,0.0000,0.0002,0.042,-0.001,11.910,0.000,78.330
11.604,1.6349,0.0002,1.6349,0.0000,0.0002,0.042,-0.008,11.890,0.000,77.220
11.664,1.6366,0.0002,1.6366,0.0000,0.0002,0.041,-0.007,11.910,0.000,78.330
11.711,1.6392,0.0002,1.6392,0.0000,0.0002,0.041,-0.007,11.910,0.000,78.330
11.753,1.6409,0.0002,1.6409,0.0000,0.0002,0.040,-0.007,11.950,0.000,80.550
11.815,1.6427,0.0002,1.6427,0.0000,0.0002,0.039,-0.008,11.970,0.000,81.660
11.860,1.6450,0.0002,1.6450,0.0000,0.0002,0.039,-0.009,11.950,0.000,80.550
11.906,1.6461,0.0002,1.6461,0.0000,0.0002,0.037,0.006,11.970,0.000,81.660
11.965,1.6473,0.0002,1.6473,0.0000,0.0002,0.037,0.001,11.950,0.000,80.550
12.012,1.6492,0.0002,1.6492,0.0000,0.0002,0.037,-0.007,11.950,0.000,80.550
12.056,1.6504,0.0002,1.6504,0.0000,0.0002,0.036,-0.013,11.930,0.000,79.440
12.118,1.6517,0.0002,1.6517,0.0000,0.0002,0.035,-0.004,11.950,0.000,80.550
12.161,1.6537,0.0002,1.6537,0.0000,0.0002,0.035,-0.007,11.970,0.000,81.660
12.206,1.6550,0.0002,1.6550,0.0000,0.0002,0.034,-0.013,11.950,0.000,80.550
12.265,1.6563,0.0002,1.6563,0.0000,0.0002,0.034,-0.017,11.970,0.000,81.660
12.312,1.6582,0.0002,1.6582,0.0000,0.0002,0.034,-0.008,11.970,0.000,81.660
12.362,1.6594,0.0002,1.6594,0.0000,0.0002,0.033,-0.008,11.950,0.000,80.550
12.417,1.6606,0.0002,1.6606,0.0000,0.0002,0.032,-0.003,11.950,0.000,80.550
12.459,1.6625,0.0002,1.6625,0.0000,0.0002,0.031,-0.005,11.970,0.000,81.660
12.506,1.6638,0.0002,1.6638,0.0000,0.0002,0.031,-0.005,11.970,0.000,81.660
12.569,1.6650,0.0002,1.6650,0.0000,0.0002,0.031,-0.013,11.970,0.000,81.660
12.614,1.6670,0.0002,1.6670,0.0000,0.0002,0.031,-0.007,11.950,0.000,80.550
12.657,1.6683,0.0002,1.6683,0.0000,0.0002,0.029,-0.010,11.970,0.000,81.660
12.719,1.6696,0.0002,1.6696,0.0000,0.0002,0.029,-0.019,11.980,0.000,82.220
12.759,1.6711,0.0002,1.6711,0.0000,0.0002,0.028,-0.011,11.970,0.000,81.660
12.818,1.6719,0.0002,1.6719,0.0000,0.0002,0.028,0.003,11.970,0.000,81.660
12.865,1.6727,0.0002,1.6727,0.0000,0.0002,0.028,-0.010,11.970,0.000,81.660
12.906,1.6740,0.0002,1.6740,0.0000,0.0002,0.027,-0.012,11.980,0.000,82.220
12.955,1.6748,0.0002,1.6748,0.0000,0.0002,0.027,-0.002,11.970,0.000,81.660
13.035,1.6757,0.0002,1.6757,0.0000,0.0002,0.027,-0.008,11.970,0.000,81.660
13.059,1.6770,0.0002,1.6770,0.0000,0.0002,0.026,-0.015,11.970,0.000,81.660
13.119,1.6779,0.0002,1.6779,0.0000,0.0002,0.026,-0.005,11.970,0.000,81.660
13.163,1.6792,0.0002,1.6792,0.0000,0.0002,0.026,-0.008,11.980,0.000,82.220
